PE UV       SUBTECH     SPECTRUM    ASCII       PEDS        4.00        
   -1
normSep298-14-5SDS-1xdil.asc
12/07/05
19:15:52.00
12/07/05
19:30:36.00
Analyst

200.000000
1
Lambda 950
950N7030103
PerkinElmer UV WinLab 6.0.3.0730 / 1.61.00 Lambda 900

0
0
3350/servo 860.8/2
0
0
UV/VIS
1
1
1
RBeamAtt,SBeamAtt,uv/vis/nir detector
0
0
0
0
Program
Program
3350/servo 860.8/2
3350/0.2 860.8/0.2
3350/0.2 860.8/0.2
0
1
 
 
 
0
 
860.8
319.2
860.8
Front
100
 
S:100 R:100
 
0
0
0
 
0
 
 
 
0
 
 
0
0
0
0
0
 
 
 
 
0
0


#HDR
-1
-1
#GR
nm
A
1.0
0.0
1350.000000
-1.000000
1151
8
4.316950
0.344729
#DATA
1350.000000	0.344729
1349.000000	0.347116
1348.000000	0.348989
1347.000000	0.352569
1346.000000	0.351047
1345.000000	0.352258
1344.000000	0.354097
1343.000000	0.355539
1342.000000	0.356979
1341.000000	0.358776
1340.000000	0.359369
1339.000000	0.361999
1338.000000	0.363476
1337.000000	0.365186
1336.000000	0.366762
1335.000000	0.367716
1334.000000	0.369306
1333.000000	0.369111
1332.000000	0.370917
1331.000000	0.371166
1330.000000	0.373828
1329.000000	0.375582
1328.000000	0.376818
1327.000000	0.376364
1326.000000	0.377880
1325.000000	0.378064
1324.000000	0.378440
1323.000000	0.379685
1322.000000	0.381442
1321.000000	0.380616
1320.000000	0.382641
1319.000000	0.385284
1318.000000	0.386164
1317.000000	0.385603
1316.000000	0.386466
1315.000000	0.385825
1314.000000	0.388056
1313.000000	0.388654
1312.000000	0.387803
1311.000000	0.388983
1310.000000	0.389898
1309.000000	0.390028
1308.000000	0.392635
1307.000000	0.392850
1306.000000	0.391911
1305.000000	0.392721
1304.000000	0.392327
1303.000000	0.392967
1302.000000	0.394722
1301.000000	0.395241
1300.000000	0.395227
1299.000000	0.396001
1298.000000	0.397140
1297.000000	0.397385
1296.000000	0.398439
1295.000000	0.398607
1294.000000	0.398749
1293.000000	0.398817
1292.000000	0.399594
1291.000000	0.400298
1290.000000	0.401114
1289.000000	0.401765
1288.000000	0.402611
1287.000000	0.403445
1286.000000	0.404548
1285.000000	0.405047
1284.000000	0.405482
1283.000000	0.405636
1282.000000	0.406719
1281.000000	0.407010
1280.000000	0.407298
1279.000000	0.408514
1278.000000	0.409219
1277.000000	0.409543
1276.000000	0.409913
1275.000000	0.411381
1274.000000	0.412879
1273.000000	0.414279
1272.000000	0.414989
1271.000000	0.414846
1270.000000	0.415329
1269.000000	0.415469
1268.000000	0.415564
1267.000000	0.417130
1266.000000	0.418744
1265.000000	0.420106
1264.000000	0.420942
1263.000000	0.421638
1262.000000	0.422456
1261.000000	0.423508
1260.000000	0.424366
1259.000000	0.425132
1258.000000	0.425504
1257.000000	0.426568
1256.000000	0.427001
1255.000000	0.427089
1254.000000	0.429037
1253.000000	0.430854
1252.000000	0.431574
1251.000000	0.432628
1250.000000	0.433453
1249.000000	0.433268
1248.000000	0.433998
1247.000000	0.435019
1246.000000	0.436559
1245.000000	0.437915
1244.000000	0.438086
1243.000000	0.438669
1242.000000	0.440636
1241.000000	0.442232
1240.000000	0.442356
1239.000000	0.442964
1238.000000	0.444810
1237.000000	0.446129
1236.000000	0.446066
1235.000000	0.445858
1234.000000	0.446377
1233.000000	0.447663
1232.000000	0.448479
1231.000000	0.448667
1230.000000	0.449162
1229.000000	0.449631
1228.000000	0.449940
1227.000000	0.450308
1226.000000	0.450676
1225.000000	0.450924
1224.000000	0.450938
1223.000000	0.451878
1222.000000	0.452068
1221.000000	0.451163
1220.000000	0.450756
1219.000000	0.450227
1218.000000	0.450455
1217.000000	0.451156
1216.000000	0.452017
1215.000000	0.452561
1214.000000	0.453188
1213.000000	0.454217
1212.000000	0.454773
1211.000000	0.455377
1210.000000	0.456698
1209.000000	0.458646
1208.000000	0.459946
1207.000000	0.461197
1206.000000	0.463366
1205.000000	0.465752
1204.000000	0.467488
1203.000000	0.468870
1202.000000	0.471453
1201.000000	0.473948
1200.000000	0.475277
1199.000000	0.476386
1198.000000	0.478074
1197.000000	0.479903
1196.000000	0.481942
1195.000000	0.483667
1194.000000	0.484703
1193.000000	0.486695
1192.000000	0.488523
1191.000000	0.489861
1190.000000	0.491910
1189.000000	0.493284
1188.000000	0.494428
1187.000000	0.496452
1186.000000	0.498789
1185.000000	0.500261
1184.000000	0.502881
1183.000000	0.504845
1182.000000	0.505933
1181.000000	0.508063
1180.000000	0.510654
1179.000000	0.513426
1178.000000	0.514816
1177.000000	0.515744
1176.000000	0.517384
1175.000000	0.519467
1174.000000	0.521033
1173.000000	0.521798
1172.000000	0.523442
1171.000000	0.525446
1170.000000	0.527351
1169.000000	0.529612
1168.000000	0.531144
1167.000000	0.531663
1166.000000	0.532944
1165.000000	0.534695
1164.000000	0.535629
1163.000000	0.536997
1162.000000	0.537827
1161.000000	0.538707
1160.000000	0.539707
1159.000000	0.541735
1158.000000	0.543031
1157.000000	0.544497
1156.000000	0.546271
1155.000000	0.548302
1154.000000	0.550016
1153.000000	0.552243
1152.000000	0.553383
1151.000000	0.555161
1150.000000	0.557286
1149.000000	0.559325
1148.000000	0.563111
1147.000000	0.565793
1146.000000	0.568995
1145.000000	0.572011
1144.000000	0.576098
1143.000000	0.581217
1142.000000	0.583363
1141.000000	0.583009
1140.000000	0.586498
1139.000000	0.591810
1138.000000	0.594175
1137.000000	0.594345
1136.000000	0.594593
1135.000000	0.599014
1134.000000	0.601301
1133.000000	0.604016
1132.000000	0.604386
1131.000000	0.606117
1130.000000	0.607479
1129.000000	0.608148
1128.000000	0.609597
1127.000000	0.611477
1126.000000	0.613850
1125.000000	0.615488
1124.000000	0.616057
1123.000000	0.618688
1122.000000	0.620503
1121.000000	0.622536
1120.000000	0.623946
1119.000000	0.625870
1118.000000	0.627046
1117.000000	0.629335
1116.000000	0.630945
1115.000000	0.633431
1114.000000	0.635924
1113.000000	0.637844
1112.000000	0.639537
1111.000000	0.642164
1110.000000	0.643035
1109.000000	0.644504
1108.000000	0.645129
1107.000000	0.646996
1106.000000	0.648062
1105.000000	0.647789
1104.000000	0.648454
1103.000000	0.649602
1102.000000	0.650561
1101.000000	0.651738
1100.000000	0.653029
1099.000000	0.653930
1098.000000	0.655520
1097.000000	0.655804
1096.000000	0.657213
1095.000000	0.658065
1094.000000	0.659746
1093.000000	0.661227
1092.000000	0.662535
1091.000000	0.664974
1090.000000	0.667728
1089.000000	0.669926
1088.000000	0.673000
1087.000000	0.675779
1086.000000	0.679235
1085.000000	0.682325
1084.000000	0.685916
1083.000000	0.689107
1082.000000	0.692536
1081.000000	0.695945
1080.000000	0.699720
1079.000000	0.704668
1078.000000	0.709306
1077.000000	0.714020
1076.000000	0.718618
1075.000000	0.723479
1074.000000	0.729214
1073.000000	0.734189
1072.000000	0.738855
1071.000000	0.745385
1070.000000	0.751206
1069.000000	0.756715
1068.000000	0.762656
1067.000000	0.769448
1066.000000	0.776404
1065.000000	0.782916
1064.000000	0.789374
1063.000000	0.797873
1062.000000	0.805138
1061.000000	0.811583
1060.000000	0.818611
1059.000000	0.826172
1058.000000	0.835477
1057.000000	0.843298
1056.000000	0.852112
1055.000000	0.861167
1054.000000	0.870570
1053.000000	0.881111
1052.000000	0.890234
1051.000000	0.900052
1050.000000	0.909390
1049.000000	0.921471
1048.000000	0.932489
1047.000000	0.943380
1046.000000	0.953525
1045.000000	0.966632
1044.000000	0.980400
1043.000000	0.993488
1042.000000	1.007764
1041.000000	1.022917
1040.000000	1.037260
1039.000000	1.052241
1038.000000	1.068048
1037.000000	1.084622
1036.000000	1.103110
1035.000000	1.122641
1034.000000	1.142026
1033.000000	1.162515
1032.000000	1.183926
1031.000000	1.206636
1030.000000	1.230323
1029.000000	1.253640
1028.000000	1.278029
1027.000000	1.302431
1026.000000	1.325795
1025.000000	1.348918
1024.000000	1.370620
1023.000000	1.391445
1022.000000	1.411884
1021.000000	1.432218
1020.000000	1.450854
1019.000000	1.467886
1018.000000	1.484787
1017.000000	1.502512
1016.000000	1.519842
1015.000000	1.537239
1014.000000	1.556936
1013.000000	1.577117
1012.000000	1.600613
1011.000000	1.626799
1010.000000	1.655225
1009.000000	1.688745
1008.000000	1.725947
1007.000000	1.765146
1006.000000	1.808243
1005.000000	1.851809
1004.000000	1.900802
1003.000000	1.953700
1002.000000	2.006856
1001.000000	2.063830
1000.000000	2.123441
999.000000	2.182289
998.000000	2.242663
997.000000	2.305328
996.000000	2.370070
995.000000	2.436494
994.000000	2.503441
993.000000	2.572891
992.000000	2.645906
991.000000	2.727424
990.000000	2.816069
989.000000	2.908959
988.000000	3.010077
987.000000	3.122668
986.000000	3.241990
985.000000	3.365600
984.000000	3.500703
983.000000	3.637789
982.000000	3.772362
981.000000	3.901327
980.000000	4.019387
979.000000	4.126751
978.000000	4.213145
977.000000	4.271857
976.000000	4.302231
975.000000	4.301821
974.000000	4.268552
973.000000	4.200920
972.000000	4.104802
971.000000	3.985342
970.000000	3.845790
969.000000	3.689516
968.000000	3.530700
967.000000	3.369146
966.000000	3.203062
965.000000	3.047852
964.000000	2.899992
963.000000	2.758801
962.000000	2.622811
961.000000	2.501221
960.000000	2.392020
959.000000	2.289239
958.000000	2.197994
957.000000	2.115333
956.000000	2.039134
955.000000	1.970363
954.000000	1.907934
953.000000	1.850089
952.000000	1.796522
951.000000	1.746253
950.000000	1.698288
949.000000	1.654705
948.000000	1.613112
947.000000	1.573381
946.000000	1.536062
945.000000	1.501825
944.000000	1.469644
943.000000	1.439584
942.000000	1.412339
941.000000	1.386414
940.000000	1.363720
939.000000	1.343555
938.000000	1.325750
937.000000	1.306470
936.000000	1.291222
935.000000	1.276380
934.000000	1.261167
933.000000	1.249172
932.000000	1.238927
931.000000	1.229584
930.000000	1.220528
929.000000	1.213662
928.000000	1.208771
927.000000	1.204261
926.000000	1.200249
925.000000	1.196939
924.000000	1.193720
923.000000	1.193225
922.000000	1.195130
921.000000	1.195253
920.000000	1.197265
919.000000	1.199046
918.000000	1.203940
917.000000	1.206786
916.000000	1.210652
915.000000	1.215289
914.000000	1.217327
913.000000	1.219004
912.000000	1.220131
911.000000	1.223387
910.000000	1.229277
909.000000	1.230676
908.000000	1.233164
907.000000	1.236711
906.000000	1.238294
905.000000	1.238358
904.000000	1.239863
903.000000	1.242063
902.000000	1.241344
901.000000	1.244643
900.000000	1.247822
899.000000	1.253727
898.000000	1.259250
897.000000	1.268365
896.000000	1.278437
895.000000	1.290973
894.000000	1.305868
893.000000	1.323298
892.000000	1.345988
891.000000	1.372883
890.000000	1.403535
889.000000	1.439215
888.000000	1.482836
887.000000	1.534027
886.000000	1.589409
885.000000	1.655165
884.000000	1.725182
883.000000	1.804851
882.000000	1.885125
881.000000	1.968406
880.000000	2.055904
879.000000	2.139101
878.000000	2.219360
877.000000	2.297604
876.000000	2.364998
875.000000	2.420599
874.000000	2.464287
873.000000	2.492947
872.000000	2.506254
871.000000	2.502431
870.000000	2.486714
869.000000	2.454712
868.000000	2.409676
867.000000	2.357248
866.000000	2.295343
865.000000	2.233837
864.000000	2.164185
863.000000	2.093149
862.000000	2.027517
861.000000	1.964726
860.000000	1.899607
859.000000	1.812295
858.000000	1.755633
857.000000	1.703418
856.000000	1.654642
855.000000	1.615071
854.000000	1.583071
853.000000	1.554317
852.000000	1.525343
851.000000	1.503230
850.000000	1.481747
849.000000	1.463646
848.000000	1.449677
847.000000	1.434610
846.000000	1.422367
845.000000	1.411505
844.000000	1.400286
843.000000	1.388727
842.000000	1.380825
841.000000	1.370851
840.000000	1.360738
839.000000	1.353208
838.000000	1.343926
837.000000	1.335703
836.000000	1.328905
835.000000	1.321495
834.000000	1.313747
833.000000	1.305900
832.000000	1.299618
831.000000	1.290870
830.000000	1.285648
829.000000	1.277686
828.000000	1.270631
827.000000	1.262991
826.000000	1.254044
825.000000	1.244955
824.000000	1.238586
823.000000	1.230789
822.000000	1.221706
821.000000	1.212161
820.000000	1.203864
819.000000	1.194720
818.000000	1.187497
817.000000	1.177615
816.000000	1.169775
815.000000	1.160906
814.000000	1.152644
813.000000	1.143291
812.000000	1.135597
811.000000	1.127707
810.000000	1.120097
809.000000	1.112153
808.000000	1.104624
807.000000	1.097125
806.000000	1.088001
805.000000	1.082210
804.000000	1.075650
803.000000	1.068436
802.000000	1.062539
801.000000	1.056325
800.000000	1.049729
799.000000	1.043970
798.000000	1.038942
797.000000	1.033792
796.000000	1.029644
795.000000	1.025009
794.000000	1.020191
793.000000	1.015560
792.000000	1.012969
791.000000	1.009726
790.000000	1.005842
789.000000	1.003726
788.000000	1.000344
787.000000	0.999644
786.000000	0.999468
785.000000	0.999049
784.000000	0.997703
783.000000	0.996558
782.000000	0.997093
781.000000	0.997744
780.000000	1.000000
779.000000	1.002890
778.000000	1.006551
777.000000	1.010550
776.000000	1.014463
775.000000	1.018627
774.000000	1.023211
773.000000	1.027442
772.000000	1.032645
771.000000	1.037894
770.000000	1.042653
769.000000	1.047215
768.000000	1.051122
767.000000	1.055624
766.000000	1.059185
765.000000	1.061427
764.000000	1.063363
763.000000	1.063846
762.000000	1.064658
761.000000	1.065744
760.000000	1.064949
759.000000	1.063098
758.000000	1.061723
757.000000	1.060582
756.000000	1.061054
755.000000	1.059361
754.000000	1.057191
753.000000	1.055419
752.000000	1.053735
751.000000	1.051779
750.000000	1.049722
749.000000	1.049022
748.000000	1.048595
747.000000	1.046202
746.000000	1.044892
745.000000	1.044535
744.000000	1.043581
743.000000	1.042142
742.000000	1.040000
741.000000	1.038408
740.000000	1.037035
739.000000	1.035655
738.000000	1.035622
737.000000	1.034868
736.000000	1.033308
735.000000	1.032565
734.000000	1.031285
733.000000	1.029338
732.000000	1.028035
731.000000	1.026927
730.000000	1.026380
729.000000	1.024565
728.000000	1.023787
727.000000	1.023799
726.000000	1.022843
725.000000	1.022672
724.000000	1.021890
723.000000	1.020497
722.000000	1.018790
721.000000	1.018227
720.000000	1.019480
719.000000	1.019624
718.000000	1.019071
717.000000	1.019871
716.000000	1.019808
715.000000	1.019958
714.000000	1.022448
713.000000	1.024382
712.000000	1.025313
711.000000	1.026981
710.000000	1.028605
709.000000	1.031890
708.000000	1.035169
707.000000	1.037623
706.000000	1.040858
705.000000	1.043726
704.000000	1.046534
703.000000	1.050767
702.000000	1.054603
701.000000	1.057478
700.000000	1.061961
699.000000	1.064852
698.000000	1.069155
697.000000	1.073805
696.000000	1.078394
695.000000	1.081487
694.000000	1.083987
693.000000	1.086847
692.000000	1.088618
691.000000	1.091724
690.000000	1.094694
689.000000	1.096920
688.000000	1.098716
687.000000	1.099784
686.000000	1.100087
685.000000	1.102306
684.000000	1.103693
683.000000	1.105121
682.000000	1.106830
681.000000	1.107465
680.000000	1.109301
679.000000	1.110630
678.000000	1.114195
677.000000	1.116767
676.000000	1.118472
675.000000	1.120770
674.000000	1.123870
673.000000	1.126675
672.000000	1.130596
671.000000	1.133894
670.000000	1.137277
669.000000	1.140729
668.000000	1.145056
667.000000	1.147472
666.000000	1.150801
665.000000	1.153203
664.000000	1.154878
663.000000	1.153816
662.000000	1.154643
661.000000	1.153660
660.000000	1.154508
659.000000	1.154930
658.000000	1.155662
657.000000	1.155400
656.000000	1.154528
655.000000	1.153705
654.000000	1.155437
653.000000	1.158975
652.000000	1.161692
651.000000	1.163985
650.000000	1.167026
649.000000	1.169593
648.000000	1.173403
647.000000	1.177221
646.000000	1.179403
645.000000	1.183202
644.000000	1.183858
643.000000	1.185494
642.000000	1.188328
641.000000	1.189861
640.000000	1.191247
639.000000	1.191471
638.000000	1.191683
637.000000	1.189949
636.000000	1.191130
635.000000	1.189825
634.000000	1.188803
633.000000	1.187738
632.000000	1.186576
631.000000	1.184936
630.000000	1.186123
629.000000	1.188389
628.000000	1.190387
627.000000	1.190987
626.000000	1.195540
625.000000	1.198875
624.000000	1.204542
623.000000	1.209385
622.000000	1.215340
621.000000	1.222040
620.000000	1.230159
619.000000	1.236461
618.000000	1.245561
617.000000	1.256110
616.000000	1.265675
615.000000	1.275529
614.000000	1.286442
613.000000	1.299496
612.000000	1.312275
611.000000	1.326660
610.000000	1.340973
609.000000	1.357271
608.000000	1.372471
607.000000	1.391222
606.000000	1.410705
605.000000	1.429179
604.000000	1.448879
603.000000	1.471550
602.000000	1.492784
601.000000	1.516943
600.000000	1.544278
599.000000	1.573244
598.000000	1.603358
597.000000	1.636871
596.000000	1.671423
595.000000	1.706928
594.000000	1.747751
593.000000	1.790090
592.000000	1.834663
591.000000	1.881892
590.000000	1.930002
589.000000	1.978783
588.000000	2.029283
587.000000	2.076136
586.000000	2.122174
585.000000	2.163010
584.000000	2.200611
583.000000	2.231783
582.000000	2.257293
581.000000	2.278417
580.000000	2.293336
579.000000	2.306180
578.000000	2.314313
577.000000	2.324708
576.000000	2.337276
575.000000	2.351524
574.000000	2.368420
573.000000	2.389367
572.000000	2.412472
571.000000	2.433398
570.000000	2.452048
569.000000	2.463604
568.000000	2.464581
567.000000	2.456111
566.000000	2.433289
565.000000	2.398089
564.000000	2.351002
563.000000	2.295241
562.000000	2.231705
561.000000	2.164169
560.000000	2.097624
559.000000	2.030656
558.000000	1.967332
557.000000	1.908609
556.000000	1.854798
555.000000	1.806578
554.000000	1.763487
553.000000	1.725546
552.000000	1.691912
551.000000	1.662440
550.000000	1.637036
549.000000	1.614566
548.000000	1.594485
547.000000	1.576940
546.000000	1.560069
545.000000	1.546376
544.000000	1.535958
543.000000	1.527477
542.000000	1.519556
541.000000	1.513520
540.000000	1.509317
539.000000	1.503657
538.000000	1.501034
537.000000	1.498124
536.000000	1.497112
535.000000	1.496658
534.000000	1.497911
533.000000	1.499724
532.000000	1.500803
531.000000	1.503637
530.000000	1.508219
529.000000	1.512534
528.000000	1.517354
527.000000	1.524438
526.000000	1.531547
525.000000	1.540328
524.000000	1.549079
523.000000	1.558692
522.000000	1.568244
521.000000	1.577659
520.000000	1.588333
519.000000	1.596770
518.000000	1.605036
517.000000	1.613424
516.000000	1.621605
515.000000	1.628913
514.000000	1.635800
513.000000	1.643307
512.000000	1.650651
511.000000	1.656625
510.000000	1.659250
509.000000	1.660105
508.000000	1.659057
507.000000	1.654265
506.000000	1.646591
505.000000	1.636222
504.000000	1.622594
503.000000	1.607230
502.000000	1.591772
501.000000	1.575819
500.000000	1.559957
499.000000	1.545510
498.000000	1.530408
497.000000	1.515967
496.000000	1.504322
495.000000	1.493740
494.000000	1.484746
493.000000	1.476556
492.000000	1.468472
491.000000	1.462179
490.000000	1.457961
489.000000	1.453373
488.000000	1.449375
487.000000	1.445932
486.000000	1.442473
485.000000	1.439380
484.000000	1.436698
483.000000	1.435445
482.000000	1.434232
481.000000	1.434441
480.000000	1.434278
479.000000	1.433729
478.000000	1.436062
477.000000	1.437871
476.000000	1.439879
475.000000	1.442799
474.000000	1.446051
473.000000	1.449838
472.000000	1.453782
471.000000	1.457185
470.000000	1.460166
469.000000	1.462450
468.000000	1.465161
467.000000	1.467132
466.000000	1.467192
465.000000	1.466784
464.000000	1.465874
463.000000	1.463906
462.000000	1.461984
461.000000	1.459033
460.000000	1.455834
459.000000	1.453171
458.000000	1.450518
457.000000	1.448298
456.000000	1.444065
455.000000	1.441105
454.000000	1.439341
453.000000	1.436680
452.000000	1.434949
451.000000	1.432427
450.000000	1.429784
449.000000	1.429590
448.000000	1.429332
447.000000	1.428943
446.000000	1.428331
445.000000	1.428897
444.000000	1.428990
443.000000	1.430155
442.000000	1.431860
441.000000	1.432868
440.000000	1.434976
439.000000	1.435463
438.000000	1.437154
437.000000	1.440079
436.000000	1.441557
435.000000	1.443625
434.000000	1.445093
433.000000	1.447182
432.000000	1.449319
431.000000	1.451757
430.000000	1.454663
429.000000	1.458277
428.000000	1.461948
427.000000	1.465070
426.000000	1.467299
425.000000	1.471158
424.000000	1.476170
423.000000	1.479913
422.000000	1.483882
421.000000	1.489699
420.000000	1.493832
419.000000	1.500907
418.000000	1.505665
417.000000	1.510811
416.000000	1.516140
415.000000	1.520216
414.000000	1.524083
413.000000	1.530650
412.000000	1.536191
411.000000	1.541799
410.000000	1.546463
409.000000	1.553037
408.000000	1.558267
407.000000	1.564828
406.000000	1.570350
405.000000	1.575271
404.000000	1.580677
403.000000	1.586520
402.000000	1.590078
401.000000	1.598034
400.000000	1.604594
399.000000	1.610401
398.000000	1.616792
397.000000	1.625225
396.000000	1.631517
395.000000	1.640287
394.000000	1.649356
393.000000	1.659177
392.000000	1.668424
391.000000	1.678128
390.000000	1.687902
389.000000	1.700395
388.000000	1.712546
387.000000	1.725350
386.000000	1.738588
385.000000	1.752653
384.000000	1.766817
383.000000	1.782673
382.000000	1.799205
381.000000	1.815592
380.000000	1.834396
379.000000	1.853097
378.000000	1.873726
377.000000	1.896521
376.000000	1.918431
375.000000	1.939787
374.000000	1.963115
373.000000	1.983800
372.000000	2.006049
371.000000	2.028222
370.000000	2.046129
369.000000	2.067380
368.000000	2.085214
367.000000	2.101584
366.000000	2.118934
365.000000	2.135587
364.000000	2.154366
363.000000	2.176778
362.000000	2.198696
361.000000	2.221308
360.000000	2.251223
359.000000	2.284065
358.000000	2.314404
357.000000	2.352345
356.000000	2.391521
355.000000	2.436947
354.000000	2.481046
353.000000	2.531277
352.000000	2.586558
351.000000	2.643229
350.000000	2.701508
349.000000	2.758205
348.000000	2.812298
347.000000	2.854028
346.000000	2.888791
345.000000	2.909147
344.000000	2.915456
343.000000	2.909160
342.000000	2.896546
341.000000	2.879228
340.000000	2.862542
339.000000	2.846261
338.000000	2.832814
337.000000	2.829316
336.000000	2.830527
335.000000	2.836888
334.000000	2.854663
333.000000	2.873414
332.000000	2.901221
331.000000	2.931592
330.000000	2.965976
329.000000	3.002042
328.000000	3.035111
327.000000	3.065771
326.000000	3.093245
325.000000	3.114360
324.000000	3.131159
323.000000	3.145043
322.000000	3.154593
321.000000	3.165601
320.000000	3.175215
319.000000	3.180385
318.000000	3.192495
317.000000	3.206896
316.000000	3.224015
315.000000	3.249256
314.000000	3.274448
313.000000	3.304139
312.000000	3.336613
311.000000	3.372654
310.000000	3.410749
309.000000	3.451662
308.000000	3.492311
307.000000	3.529728
306.000000	3.561680
305.000000	3.585855
304.000000	3.600592
303.000000	3.604348
302.000000	3.595502
301.000000	3.577751
300.000000	3.555233
299.000000	3.528044
298.000000	3.499917
297.000000	3.471725
296.000000	3.449351
295.000000	3.433184
294.000000	3.423298
293.000000	3.419259
292.000000	3.419397
291.000000	3.421091
290.000000	3.425287
289.000000	3.430733
288.000000	3.435083
287.000000	3.435782
286.000000	3.436165
285.000000	3.430963
284.000000	3.421136
283.000000	3.407265
282.000000	3.392246
281.000000	3.374469
280.000000	3.356877
279.000000	3.340504
278.000000	3.326503
277.000000	3.317114
276.000000	3.310456
275.000000	3.308214
274.000000	3.307632
273.000000	3.304391
272.000000	3.297642
271.000000	3.286349
270.000000	3.273322
269.000000	3.257436
268.000000	3.240362
267.000000	3.222009
266.000000	3.205689
265.000000	3.192103
264.000000	3.180120
263.000000	3.170312
262.000000	3.165056
261.000000	3.162440
260.000000	3.161602
259.000000	3.162913
258.000000	3.168001
257.000000	3.178061
256.000000	3.193710
255.000000	3.215574
254.000000	3.242672
253.000000	3.274537
252.000000	3.312408
251.000000	3.356754
250.000000	3.407488
249.000000	3.462520
248.000000	3.521786
247.000000	3.587823
246.000000	3.658308
245.000000	3.733651
244.000000	3.809480
243.000000	3.884084
242.000000	3.957739
241.000000	4.026505
240.000000	4.090403
239.000000	4.146828
238.000000	4.195410
237.000000	4.235886
236.000000	4.268311
235.000000	4.294328
234.000000	4.310718
233.000000	4.316950
232.000000	4.313800
231.000000	4.304252
230.000000	4.289071
229.000000	4.271257
228.000000	4.254921
227.000000	4.240123
226.000000	4.228498
225.000000	4.218228
224.000000	4.209576
223.000000	4.204535
222.000000	4.199903
221.000000	4.194406
220.000000	4.186743
219.000000	4.177940
218.000000	4.165997
217.000000	4.150382
216.000000	4.129463
215.000000	4.104130
214.000000	4.075303
213.000000	4.043027
212.000000	4.010325
211.000000	3.981008
210.000000	3.953862
209.000000	3.933510
208.000000	3.924812
207.000000	3.924765
206.000000	3.937002
205.000000	3.958817
204.000000	3.986499
203.000000	4.011893
202.000000	4.028511
201.000000	4.041094
200.000000	4.042937
