PE UV       SUBTECH     SPECTRUM    ASCII       PEDS        4.00        
   -1
normSG65i-SX-12.asc
13/04/25
17:03:35.00
13/04/25
17:28:41.00
Analyst

200.000000
1
Lambda 950
950N7030103
PerkinElmer UV WinLab 6.0.3.0730 / 1.61.00 Lambda 900

0
0
3350/servo 860.8/2
0
0
UV/VIS
1
1
1
RBeamAtt,SBeamAtt,uv/vis/nir detector
0
0
0
0
Program
Program
3350/servo 860.8/2
3350/0.2 860.8/0.2
3350/0.2 860.8/0.2
0
1
 
 
 
0
 
860.8
319.2
860.8
Front
100
 
S:100 R:100
 
0
0
0
 
0
 
 
 
0
 
 
0
0
0
0
0
 
 
 
 
0
0


#HDR
-1
-1
#GR
nm
A
1.0
0.0
1350.000000
-1.000000
1151
8
3.801128
0.179708
#DATA
1350.000000	0.179708
1349.000000	0.181991
1348.000000	0.183470
1347.000000	0.185590
1346.000000	0.187184
1345.000000	0.188982
1344.000000	0.191608
1343.000000	0.193641
1342.000000	0.195610
1341.000000	0.197050
1340.000000	0.198849
1339.000000	0.200265
1338.000000	0.202207
1337.000000	0.204532
1336.000000	0.207037
1335.000000	0.210074
1334.000000	0.211822
1333.000000	0.213890
1332.000000	0.216236
1331.000000	0.217834
1330.000000	0.220749
1329.000000	0.222156
1328.000000	0.224203
1327.000000	0.226755
1326.000000	0.228969
1325.000000	0.231405
1324.000000	0.233799
1323.000000	0.236137
1322.000000	0.238198
1321.000000	0.239459
1320.000000	0.241554
1319.000000	0.243150
1318.000000	0.245618
1317.000000	0.247464
1316.000000	0.249338
1315.000000	0.252078
1314.000000	0.253754
1313.000000	0.255615
1312.000000	0.257570
1311.000000	0.258412
1310.000000	0.260064
1309.000000	0.262136
1308.000000	0.263456
1307.000000	0.265228
1306.000000	0.266755
1305.000000	0.268110
1304.000000	0.269352
1303.000000	0.271048
1302.000000	0.272744
1301.000000	0.274624
1300.000000	0.275741
1299.000000	0.276345
1298.000000	0.277798
1297.000000	0.279126
1296.000000	0.280997
1295.000000	0.282322
1294.000000	0.283229
1293.000000	0.284576
1292.000000	0.286156
1291.000000	0.287207
1290.000000	0.288314
1289.000000	0.289444
1288.000000	0.290207
1287.000000	0.291306
1286.000000	0.292280
1285.000000	0.293550
1284.000000	0.294768
1283.000000	0.296346
1282.000000	0.297829
1281.000000	0.298819
1280.000000	0.299797
1279.000000	0.300456
1278.000000	0.301559
1277.000000	0.302590
1276.000000	0.303660
1275.000000	0.304556
1274.000000	0.305759
1273.000000	0.306877
1272.000000	0.307695
1271.000000	0.308731
1270.000000	0.310056
1269.000000	0.311594
1268.000000	0.313044
1267.000000	0.314059
1266.000000	0.314385
1265.000000	0.315177
1264.000000	0.316283
1263.000000	0.317270
1262.000000	0.318549
1261.000000	0.319772
1260.000000	0.320458
1259.000000	0.321528
1258.000000	0.322933
1257.000000	0.324297
1256.000000	0.325530
1255.000000	0.326510
1254.000000	0.327424
1253.000000	0.328343
1252.000000	0.329208
1251.000000	0.330133
1250.000000	0.330996
1249.000000	0.332062
1248.000000	0.333754
1247.000000	0.335052
1246.000000	0.336174
1245.000000	0.337731
1244.000000	0.338971
1243.000000	0.340305
1242.000000	0.342007
1241.000000	0.343325
1240.000000	0.344505
1239.000000	0.346211
1238.000000	0.348459
1237.000000	0.350089
1236.000000	0.351907
1235.000000	0.354238
1234.000000	0.357073
1233.000000	0.359728
1232.000000	0.362055
1231.000000	0.364401
1230.000000	0.366946
1229.000000	0.370012
1228.000000	0.373337
1227.000000	0.376816
1226.000000	0.380431
1225.000000	0.384447
1224.000000	0.388884
1223.000000	0.393549
1222.000000	0.398210
1221.000000	0.402866
1220.000000	0.407758
1219.000000	0.412305
1218.000000	0.416696
1217.000000	0.420945
1216.000000	0.424892
1215.000000	0.428340
1214.000000	0.431837
1213.000000	0.435134
1212.000000	0.437830
1211.000000	0.440466
1210.000000	0.442552
1209.000000	0.444653
1208.000000	0.446205
1207.000000	0.446755
1206.000000	0.447578
1205.000000	0.449025
1204.000000	0.449762
1203.000000	0.450120
1202.000000	0.451543
1201.000000	0.452467
1200.000000	0.453471
1199.000000	0.454682
1198.000000	0.456265
1197.000000	0.457451
1196.000000	0.458496
1195.000000	0.459745
1194.000000	0.461171
1193.000000	0.462713
1192.000000	0.464477
1191.000000	0.465818
1190.000000	0.467130
1189.000000	0.468084
1188.000000	0.469331
1187.000000	0.470680
1186.000000	0.472192
1185.000000	0.473545
1184.000000	0.474847
1183.000000	0.475602
1182.000000	0.476278
1181.000000	0.477454
1180.000000	0.478648
1179.000000	0.480031
1178.000000	0.481624
1177.000000	0.483443
1176.000000	0.485641
1175.000000	0.487651
1174.000000	0.489575
1173.000000	0.491757
1172.000000	0.494375
1171.000000	0.496552
1170.000000	0.498954
1169.000000	0.501437
1168.000000	0.503826
1167.000000	0.506291
1166.000000	0.508676
1165.000000	0.511040
1164.000000	0.513229
1163.000000	0.515299
1162.000000	0.517540
1161.000000	0.519732
1160.000000	0.521642
1159.000000	0.523579
1158.000000	0.525117
1157.000000	0.526599
1156.000000	0.528535
1155.000000	0.529889
1154.000000	0.531264
1153.000000	0.533359
1152.000000	0.535701
1151.000000	0.538245
1150.000000	0.540880
1149.000000	0.542385
1148.000000	0.544768
1147.000000	0.546939
1146.000000	0.549536
1145.000000	0.552652
1144.000000	0.554208
1143.000000	0.557135
1142.000000	0.560397
1141.000000	0.563181
1140.000000	0.565818
1139.000000	0.568262
1138.000000	0.572420
1137.000000	0.572778
1136.000000	0.574991
1135.000000	0.577494
1134.000000	0.579931
1133.000000	0.581530
1132.000000	0.583286
1131.000000	0.584723
1130.000000	0.586786
1129.000000	0.588877
1128.000000	0.590285
1127.000000	0.592380
1126.000000	0.594064
1125.000000	0.595135
1124.000000	0.597285
1123.000000	0.599108
1122.000000	0.601027
1121.000000	0.603484
1120.000000	0.604649
1119.000000	0.606641
1118.000000	0.608435
1117.000000	0.610711
1116.000000	0.612571
1115.000000	0.614046
1114.000000	0.615998
1113.000000	0.617234
1112.000000	0.618546
1111.000000	0.619995
1110.000000	0.621120
1109.000000	0.622061
1108.000000	0.623288
1107.000000	0.624292
1106.000000	0.625519
1105.000000	0.625943
1104.000000	0.627024
1103.000000	0.627398
1102.000000	0.628184
1101.000000	0.628970
1100.000000	0.629667
1099.000000	0.630782
1098.000000	0.631639
1097.000000	0.632897
1096.000000	0.634309
1095.000000	0.636330
1094.000000	0.638438
1093.000000	0.640222
1092.000000	0.642521
1091.000000	0.645076
1090.000000	0.647556
1089.000000	0.650487
1088.000000	0.653398
1087.000000	0.656892
1086.000000	0.660320
1085.000000	0.664811
1084.000000	0.669733
1083.000000	0.674343
1082.000000	0.678854
1081.000000	0.683853
1080.000000	0.689168
1079.000000	0.694712
1078.000000	0.699885
1077.000000	0.705928
1076.000000	0.711755
1075.000000	0.717759
1074.000000	0.724196
1073.000000	0.731294
1072.000000	0.737933
1071.000000	0.745045
1070.000000	0.751790
1069.000000	0.758941
1068.000000	0.766084
1067.000000	0.773620
1066.000000	0.781349
1065.000000	0.789273
1064.000000	0.797038
1063.000000	0.805494
1062.000000	0.813894
1061.000000	0.822925
1060.000000	0.831902
1059.000000	0.841230
1058.000000	0.850770
1057.000000	0.860261
1056.000000	0.869769
1055.000000	0.879826
1054.000000	0.890280
1053.000000	0.900589
1052.000000	0.911138
1051.000000	0.922501
1050.000000	0.933522
1049.000000	0.945049
1048.000000	0.957227
1047.000000	0.969707
1046.000000	0.982717
1045.000000	0.996049
1044.000000	1.009365
1043.000000	1.023212
1042.000000	1.038430
1041.000000	1.053604
1040.000000	1.068634
1039.000000	1.085285
1038.000000	1.102916
1037.000000	1.120382
1036.000000	1.138341
1035.000000	1.157419
1034.000000	1.176449
1033.000000	1.196525
1032.000000	1.217423
1031.000000	1.238266
1030.000000	1.260856
1029.000000	1.281844
1028.000000	1.304217
1027.000000	1.328042
1026.000000	1.351304
1025.000000	1.374745
1024.000000	1.397116
1023.000000	1.418776
1022.000000	1.440582
1021.000000	1.462523
1020.000000	1.483292
1019.000000	1.503541
1018.000000	1.523522
1017.000000	1.544371
1016.000000	1.565443
1015.000000	1.586566
1014.000000	1.607974
1013.000000	1.631100
1012.000000	1.655340
1011.000000	1.679440
1010.000000	1.704524
1009.000000	1.731252
1008.000000	1.760478
1007.000000	1.791838
1006.000000	1.823886
1005.000000	1.856744
1004.000000	1.892216
1003.000000	1.930347
1002.000000	1.969736
1001.000000	2.010244
1000.000000	2.051108
999.000000	2.094454
998.000000	2.140453
997.000000	2.187122
996.000000	2.233313
995.000000	2.283364
994.000000	2.336792
993.000000	2.390807
992.000000	2.449065
991.000000	2.514076
990.000000	2.581880
989.000000	2.651751
988.000000	2.728590
987.000000	2.809225
986.000000	2.893279
985.000000	2.979983
984.000000	3.064766
983.000000	3.153222
982.000000	3.237921
981.000000	3.315699
980.000000	3.384290
979.000000	3.436763
978.000000	3.475060
977.000000	3.494205
976.000000	3.488639
975.000000	3.461411
974.000000	3.412403
973.000000	3.340338
972.000000	3.248686
971.000000	3.145346
970.000000	3.031294
969.000000	2.910979
968.000000	2.786274
967.000000	2.664609
966.000000	2.545437
965.000000	2.426278
964.000000	2.317997
963.000000	2.217326
962.000000	2.120292
961.000000	2.030285
960.000000	1.951188
959.000000	1.878628
958.000000	1.811675
957.000000	1.751004
956.000000	1.696185
955.000000	1.646710
954.000000	1.601203
953.000000	1.558362
952.000000	1.519676
951.000000	1.483978
950.000000	1.450414
949.000000	1.419301
948.000000	1.390496
947.000000	1.364133
946.000000	1.340121
945.000000	1.318350
944.000000	1.298483
943.000000	1.280444
942.000000	1.263921
941.000000	1.249553
940.000000	1.237594
939.000000	1.226345
938.000000	1.216730
937.000000	1.208615
936.000000	1.203554
935.000000	1.198675
934.000000	1.194727
933.000000	1.193148
932.000000	1.192670
931.000000	1.192144
930.000000	1.194101
929.000000	1.195986
928.000000	1.198445
927.000000	1.202465
926.000000	1.208006
925.000000	1.214799
924.000000	1.222610
923.000000	1.231414
922.000000	1.241760
921.000000	1.252772
920.000000	1.264459
919.000000	1.277221
918.000000	1.289889
917.000000	1.303034
916.000000	1.316439
915.000000	1.330592
914.000000	1.344851
913.000000	1.357712
912.000000	1.371696
911.000000	1.385596
910.000000	1.398612
909.000000	1.412515
908.000000	1.426802
907.000000	1.439691
906.000000	1.454992
905.000000	1.470622
904.000000	1.487039
903.000000	1.503670
902.000000	1.522635
901.000000	1.541792
900.000000	1.561467
899.000000	1.583863
898.000000	1.607861
897.000000	1.632740
896.000000	1.657976
895.000000	1.685275
894.000000	1.717111
893.000000	1.751893
892.000000	1.789027
891.000000	1.832732
890.000000	1.883914
889.000000	1.940944
888.000000	2.006453
887.000000	2.076303
886.000000	2.161105
885.000000	2.254963
884.000000	2.357596
883.000000	2.470088
882.000000	2.585686
881.000000	2.710905
880.000000	2.839616
879.000000	2.970186
878.000000	3.095221
877.000000	3.208171
876.000000	3.311460
875.000000	3.390455
874.000000	3.441810
873.000000	3.460150
872.000000	3.450547
871.000000	3.403599
870.000000	3.334651
869.000000	3.243937
868.000000	3.140126
867.000000	3.019000
866.000000	2.897583
865.000000	2.778335
864.000000	2.666624
863.000000	2.546739
862.000000	2.438744
861.000000	2.342444
860.000000	2.252829
859.000000	2.124874
858.000000	2.046047
857.000000	1.971600
856.000000	1.908370
855.000000	1.852502
854.000000	1.802688
853.000000	1.762607
852.000000	1.726105
851.000000	1.692121
850.000000	1.665029
849.000000	1.642219
848.000000	1.620881
847.000000	1.602996
846.000000	1.587816
845.000000	1.574797
844.000000	1.563667
843.000000	1.556528
842.000000	1.549989
841.000000	1.547548
840.000000	1.546564
839.000000	1.548512
838.000000	1.554522
837.000000	1.562135
836.000000	1.571725
835.000000	1.582302
834.000000	1.595167
833.000000	1.605613
832.000000	1.614866
831.000000	1.621048
830.000000	1.621672
829.000000	1.616916
828.000000	1.605114
827.000000	1.589349
826.000000	1.567790
825.000000	1.541550
824.000000	1.511372
823.000000	1.480380
822.000000	1.447862
821.000000	1.415781
820.000000	1.384930
819.000000	1.354393
818.000000	1.325104
817.000000	1.297989
816.000000	1.273219
815.000000	1.248749
814.000000	1.226290
813.000000	1.205628
812.000000	1.185917
811.000000	1.168428
810.000000	1.152056
809.000000	1.137304
808.000000	1.122512
807.000000	1.109259
806.000000	1.097002
805.000000	1.085310
804.000000	1.074781
803.000000	1.065495
802.000000	1.055926
801.000000	1.047473
800.000000	1.039681
799.000000	1.032674
798.000000	1.025148
797.000000	1.018681
796.000000	1.013106
795.000000	1.007939
794.000000	1.003432
793.000000	0.999640
792.000000	0.996390
791.000000	0.993620
790.000000	0.990802
789.000000	0.989531
788.000000	0.988070
787.000000	0.987264
786.000000	0.987189
785.000000	0.987810
784.000000	0.988415
783.000000	0.989776
782.000000	0.992443
781.000000	0.995871
780.000000	1.000000
779.000000	1.004330
778.000000	1.009682
777.000000	1.015651
776.000000	1.021679
775.000000	1.028778
774.000000	1.036494
773.000000	1.044067
772.000000	1.051717
771.000000	1.059770
770.000000	1.067286
769.000000	1.074312
768.000000	1.080701
767.000000	1.085998
766.000000	1.090598
765.000000	1.094591
764.000000	1.097548
763.000000	1.099388
762.000000	1.099978
761.000000	1.099604
760.000000	1.098800
759.000000	1.097330
758.000000	1.095572
757.000000	1.093091
756.000000	1.090476
755.000000	1.088165
754.000000	1.085651
753.000000	1.083226
752.000000	1.080933
751.000000	1.078745
750.000000	1.077083
749.000000	1.075392
748.000000	1.073715
747.000000	1.072122
746.000000	1.070523
745.000000	1.069074
744.000000	1.067997
743.000000	1.066929
742.000000	1.065564
741.000000	1.064080
740.000000	1.062678
739.000000	1.061523
738.000000	1.060035
737.000000	1.058029
736.000000	1.056154
735.000000	1.054257
734.000000	1.052279
733.000000	1.050427
732.000000	1.048290
731.000000	1.045532
730.000000	1.042733
729.000000	1.040156
728.000000	1.037328
727.000000	1.034040
726.000000	1.030417
725.000000	1.027314
724.000000	1.024689
723.000000	1.021446
722.000000	1.018242
721.000000	1.015645
720.000000	1.013104
719.000000	1.010782
718.000000	1.008607
717.000000	1.006550
716.000000	1.004895
715.000000	1.003962
714.000000	1.003512
713.000000	1.003500
712.000000	1.003490
711.000000	1.003804
710.000000	1.004374
709.000000	1.005452
708.000000	1.006665
707.000000	1.007722
706.000000	1.008587
705.000000	1.009879
704.000000	1.011494
703.000000	1.013215
702.000000	1.014548
701.000000	1.016030
700.000000	1.017894
699.000000	1.019623
698.000000	1.021446
697.000000	1.023033
696.000000	1.024769
695.000000	1.026231
694.000000	1.027780
693.000000	1.029740
692.000000	1.031115
691.000000	1.031922
690.000000	1.033086
689.000000	1.034207
688.000000	1.034972
687.000000	1.035458
686.000000	1.036667
685.000000	1.038089
684.000000	1.039264
683.000000	1.040427
682.000000	1.042362
681.000000	1.044455
680.000000	1.046413
679.000000	1.048104
678.000000	1.050761
677.000000	1.053694
676.000000	1.056941
675.000000	1.059808
674.000000	1.062828
673.000000	1.066210
672.000000	1.069652
671.000000	1.073138
670.000000	1.077075
669.000000	1.080172
668.000000	1.083428
667.000000	1.087189
666.000000	1.090581
665.000000	1.093211
664.000000	1.095669
663.000000	1.097952
662.000000	1.100217
661.000000	1.101814
660.000000	1.103270
659.000000	1.104235
658.000000	1.105351
657.000000	1.106304
656.000000	1.108317
655.000000	1.109928
654.000000	1.111881
653.000000	1.113700
652.000000	1.116113
651.000000	1.118387
650.000000	1.120820
649.000000	1.123294
648.000000	1.125464
647.000000	1.127411
646.000000	1.129452
645.000000	1.131093
644.000000	1.133038
643.000000	1.134441
642.000000	1.135365
641.000000	1.136538
640.000000	1.137218
639.000000	1.136826
638.000000	1.136787
637.000000	1.136770
636.000000	1.136594
635.000000	1.136074
634.000000	1.135821
633.000000	1.135825
632.000000	1.136172
631.000000	1.137122
630.000000	1.139192
629.000000	1.142184
628.000000	1.145215
627.000000	1.149137
626.000000	1.154875
625.000000	1.161405
624.000000	1.168417
623.000000	1.176433
622.000000	1.185399
621.000000	1.194626
620.000000	1.204993
619.000000	1.215794
618.000000	1.227362
617.000000	1.240503
616.000000	1.254190
615.000000	1.269404
614.000000	1.285845
613.000000	1.302585
612.000000	1.320796
611.000000	1.340431
610.000000	1.361115
609.000000	1.382597
608.000000	1.405853
607.000000	1.429937
606.000000	1.455578
605.000000	1.483477
604.000000	1.511940
603.000000	1.542181
602.000000	1.574250
601.000000	1.607976
600.000000	1.643772
599.000000	1.682061
598.000000	1.722416
597.000000	1.765786
596.000000	1.812400
595.000000	1.862245
594.000000	1.914758
593.000000	1.969787
592.000000	2.027427
591.000000	2.086986
590.000000	2.147907
589.000000	2.208799
588.000000	2.267430
587.000000	2.322627
586.000000	2.373232
585.000000	2.416223
584.000000	2.450051
583.000000	2.473348
582.000000	2.485473
581.000000	2.487846
580.000000	2.482353
579.000000	2.470501
578.000000	2.454922
577.000000	2.438716
576.000000	2.423556
575.000000	2.411180
574.000000	2.401858
573.000000	2.395750
572.000000	2.391713
571.000000	2.387254
570.000000	2.380415
569.000000	2.368916
568.000000	2.349970
567.000000	2.323599
566.000000	2.287908
565.000000	2.243972
564.000000	2.192596
563.000000	2.135453
562.000000	2.074509
561.000000	2.011917
560.000000	1.951450
559.000000	1.892749
558.000000	1.837145
557.000000	1.785978
556.000000	1.739613
555.000000	1.697769
554.000000	1.660310
553.000000	1.627498
552.000000	1.598532
551.000000	1.572434
550.000000	1.549772
549.000000	1.530363
548.000000	1.513425
547.000000	1.498700
546.000000	1.486228
545.000000	1.475615
544.000000	1.467451
543.000000	1.460696
542.000000	1.455138
541.000000	1.450471
540.000000	1.447195
539.000000	1.445156
538.000000	1.443908
537.000000	1.443516
536.000000	1.443796
535.000000	1.444671
534.000000	1.446372
533.000000	1.448648
532.000000	1.451173
531.000000	1.453926
530.000000	1.457118
529.000000	1.461037
528.000000	1.465693
527.000000	1.470602
526.000000	1.475840
525.000000	1.481464
524.000000	1.487366
523.000000	1.493391
522.000000	1.499598
521.000000	1.505236
520.000000	1.510519
519.000000	1.515371
518.000000	1.519516
517.000000	1.523369
516.000000	1.526849
515.000000	1.529584
514.000000	1.532310
513.000000	1.534905
512.000000	1.536032
511.000000	1.536111
510.000000	1.535748
509.000000	1.534577
508.000000	1.532216
507.000000	1.528177
506.000000	1.522668
505.000000	1.515863
504.000000	1.508074
503.000000	1.499725
502.000000	1.491257
501.000000	1.482907
500.000000	1.474617
499.000000	1.467305
498.000000	1.461561
497.000000	1.456921
496.000000	1.453154
495.000000	1.450522
494.000000	1.449292
493.000000	1.449326
492.000000	1.450337
491.000000	1.451347
490.000000	1.452526
489.000000	1.453536
488.000000	1.453610
487.000000	1.452597
486.000000	1.449833
485.000000	1.445217
484.000000	1.439567
483.000000	1.433113
482.000000	1.426013
481.000000	1.419022
480.000000	1.412469
479.000000	1.406732
478.000000	1.402435
477.000000	1.399448
476.000000	1.397074
475.000000	1.395857
474.000000	1.395878
473.000000	1.396218
472.000000	1.397260
471.000000	1.398732
470.000000	1.399848
469.000000	1.400993
468.000000	1.402176
467.000000	1.402629
466.000000	1.402074
465.000000	1.400761
464.000000	1.398467
463.000000	1.395772
462.000000	1.392870
461.000000	1.389154
460.000000	1.385058
459.000000	1.380907
458.000000	1.376779
457.000000	1.372872
456.000000	1.368946
455.000000	1.365554
454.000000	1.362229
453.000000	1.358977
452.000000	1.355945
451.000000	1.353122
450.000000	1.350523
449.000000	1.348315
448.000000	1.346334
447.000000	1.344818
446.000000	1.343451
445.000000	1.342225
444.000000	1.341158
443.000000	1.340617
442.000000	1.340145
441.000000	1.339683
440.000000	1.339308
439.000000	1.339273
438.000000	1.339684
437.000000	1.340247
436.000000	1.341069
435.000000	1.342363
434.000000	1.343674
433.000000	1.345602
432.000000	1.347985
431.000000	1.350532
430.000000	1.353169
429.000000	1.356212
428.000000	1.359911
427.000000	1.363618
426.000000	1.368183
425.000000	1.373128
424.000000	1.378103
423.000000	1.383734
422.000000	1.389676
421.000000	1.395851
420.000000	1.402257
419.000000	1.408548
418.000000	1.415306
417.000000	1.422209
416.000000	1.428768
415.000000	1.435018
414.000000	1.440619
413.000000	1.446503
412.000000	1.451486
411.000000	1.456024
410.000000	1.459951
409.000000	1.463625
408.000000	1.467413
407.000000	1.471023
406.000000	1.474349
405.000000	1.477616
404.000000	1.480762
403.000000	1.484624
402.000000	1.488477
401.000000	1.492082
400.000000	1.495829
399.000000	1.500079
398.000000	1.504718
397.000000	1.510108
396.000000	1.515756
395.000000	1.521744
394.000000	1.528314
393.000000	1.536036
392.000000	1.543869
391.000000	1.552787
390.000000	1.562398
389.000000	1.572297
388.000000	1.582804
387.000000	1.594467
386.000000	1.606296
385.000000	1.618643
384.000000	1.632324
383.000000	1.646007
382.000000	1.660237
381.000000	1.674557
380.000000	1.690710
379.000000	1.706596
378.000000	1.726689
377.000000	1.742854
376.000000	1.760727
375.000000	1.779296
374.000000	1.796934
373.000000	1.813185
372.000000	1.829768
371.000000	1.845711
370.000000	1.860844
369.000000	1.876123
368.000000	1.890709
367.000000	1.905392
366.000000	1.920599
365.000000	1.937595
364.000000	1.957693
363.000000	1.979411
362.000000	2.001060
361.000000	2.027753
360.000000	2.056695
359.000000	2.087653
358.000000	2.123410
357.000000	2.162959
356.000000	2.204275
355.000000	2.250129
354.000000	2.298092
353.000000	2.348892
352.000000	2.402996
351.000000	2.459705
350.000000	2.517802
349.000000	2.569880
348.000000	2.620146
347.000000	2.661944
346.000000	2.693555
345.000000	2.716671
344.000000	2.728443
343.000000	2.732524
342.000000	2.731450
341.000000	2.726112
340.000000	2.726089
339.000000	2.728904
338.000000	2.736041
337.000000	2.750239
336.000000	2.769978
335.000000	2.797546
334.000000	2.830664
333.000000	2.870718
332.000000	2.916985
331.000000	2.967370
330.000000	3.017279
329.000000	3.064482
328.000000	3.111342
327.000000	3.148415
326.000000	3.177479
325.000000	3.195482
324.000000	3.205507
323.000000	3.212424
322.000000	3.211965
321.000000	3.209822
320.000000	3.209434
319.000000	3.208810
318.000000	3.212776
317.000000	3.220414
316.000000	3.231936
315.000000	3.250752
314.000000	3.276187
313.000000	3.306050
312.000000	3.341767
311.000000	3.380216
310.000000	3.422258
309.000000	3.462956
308.000000	3.500567
307.000000	3.531918
306.000000	3.554482
305.000000	3.566208
304.000000	3.568300
303.000000	3.559215
302.000000	3.539560
301.000000	3.513223
300.000000	3.482198
299.000000	3.450048
298.000000	3.418003
297.000000	3.387827
296.000000	3.360576
295.000000	3.338120
294.000000	3.321486
293.000000	3.308692
292.000000	3.299722
291.000000	3.291439
290.000000	3.283472
289.000000	3.274259
288.000000	3.262621
287.000000	3.246945
286.000000	3.227631
285.000000	3.204773
284.000000	3.180148
283.000000	3.152840
282.000000	3.125942
281.000000	3.100003
280.000000	3.077292
279.000000	3.057883
278.000000	3.042847
277.000000	3.030801
276.000000	3.020647
275.000000	3.012742
274.000000	3.006045
273.000000	2.997844
272.000000	2.987994
271.000000	2.976747
270.000000	2.964152
269.000000	2.949894
268.000000	2.936010
267.000000	2.923170
266.000000	2.910884
265.000000	2.900496
264.000000	2.891722
263.000000	2.884955
262.000000	2.879214
261.000000	2.874868
260.000000	2.872302
259.000000	2.871092
258.000000	2.872070
257.000000	2.875465
256.000000	2.881224
255.000000	2.889286
254.000000	2.899868
253.000000	2.913687
252.000000	2.929293
251.000000	2.948019
250.000000	2.969979
249.000000	2.995722
248.000000	3.024818
247.000000	3.056284
246.000000	3.091635
245.000000	3.130470
244.000000	3.172708
243.000000	3.216430
242.000000	3.261109
241.000000	3.307567
240.000000	3.354263
239.000000	3.401309
238.000000	3.447174
237.000000	3.490499
236.000000	3.531357
235.000000	3.568664
234.000000	3.604050
233.000000	3.637472
232.000000	3.667979
231.000000	3.694564
230.000000	3.716656
229.000000	3.731914
228.000000	3.741291
227.000000	3.748661
226.000000	3.754130
225.000000	3.758935
224.000000	3.766034
223.000000	3.774151
222.000000	3.782365
221.000000	3.791078
220.000000	3.797656
219.000000	3.800697
218.000000	3.801128
217.000000	3.795795
216.000000	3.780913
215.000000	3.757871
214.000000	3.725733
213.000000	3.685175
212.000000	3.638209
211.000000	3.588124
210.000000	3.536857
209.000000	3.487041
208.000000	3.440234
207.000000	3.397626
206.000000	3.361331
205.000000	3.333544
204.000000	3.312874
203.000000	3.301624
202.000000	3.300191
201.000000	3.306892
200.000000	3.320266
