PE UV       SUBTECH     SPECTRUM    ASCII       PEDS        4.00        
   -1
normSep298-10-5SDS-1xdil.asc
12/07/05
18:43:59.00
12/07/05
18:58:32.00
Analyst

200.000000
1
Lambda 950
950N7030103
PerkinElmer UV WinLab 6.0.3.0730 / 1.61.00 Lambda 900

0
0
3350/servo 860.8/2
0
0
UV/VIS
1
1
1
RBeamAtt,SBeamAtt,uv/vis/nir detector
0
0
0
0
Program
Program
3350/servo 860.8/2
3350/0.2 860.8/0.2
3350/0.2 860.8/0.2
0
1
 
 
 
0
 
860.8
319.2
860.8
Front
100
 
S:100 R:100
 
0
0
0
 
0
 
 
 
0
 
 
0
0
0
0
0
 
 
 
 
0
0


#HDR
-1
-1
#GR
nm
A
1.0
0.0
1350.000000
-1.000000
1151
8
4.487415
0.348725
#DATA
1350.000000	0.367551
1349.000000	0.368280
1348.000000	0.368326
1347.000000	0.369534
1346.000000	0.367811
1345.000000	0.367492
1344.000000	0.366794
1343.000000	0.366565
1342.000000	0.366171
1341.000000	0.366220
1340.000000	0.365260
1339.000000	0.364808
1338.000000	0.364266
1337.000000	0.363913
1336.000000	0.363206
1335.000000	0.362671
1334.000000	0.362869
1333.000000	0.361754
1332.000000	0.361101
1331.000000	0.360258
1330.000000	0.360010
1329.000000	0.359212
1328.000000	0.359827
1327.000000	0.358146
1326.000000	0.357777
1325.000000	0.356512
1324.000000	0.355893
1323.000000	0.355696
1322.000000	0.355618
1321.000000	0.354705
1320.000000	0.354010
1319.000000	0.354757
1318.000000	0.354143
1317.000000	0.353458
1316.000000	0.353343
1315.000000	0.351595
1314.000000	0.352204
1313.000000	0.351655
1312.000000	0.351275
1311.000000	0.351045
1310.000000	0.350440
1309.000000	0.350077
1308.000000	0.350458
1307.000000	0.349710
1306.000000	0.349035
1305.000000	0.349353
1304.000000	0.349109
1303.000000	0.348725
1302.000000	0.349236
1301.000000	0.349118
1300.000000	0.349205
1299.000000	0.349132
1298.000000	0.349276
1297.000000	0.349179
1296.000000	0.349507
1295.000000	0.349494
1294.000000	0.349560
1293.000000	0.350180
1292.000000	0.351401
1291.000000	0.351513
1290.000000	0.351793
1289.000000	0.352700
1288.000000	0.353050
1287.000000	0.353136
1286.000000	0.354054
1285.000000	0.354371
1284.000000	0.354986
1283.000000	0.355719
1282.000000	0.357090
1281.000000	0.357848
1280.000000	0.358531
1279.000000	0.359977
1278.000000	0.360958
1277.000000	0.361631
1276.000000	0.362361
1275.000000	0.363803
1274.000000	0.365057
1273.000000	0.366795
1272.000000	0.368224
1271.000000	0.369658
1270.000000	0.371133
1269.000000	0.372032
1268.000000	0.373189
1267.000000	0.374977
1266.000000	0.377037
1265.000000	0.378779
1264.000000	0.380267
1263.000000	0.381637
1262.000000	0.383134
1261.000000	0.384599
1260.000000	0.386577
1259.000000	0.389040
1258.000000	0.390803
1257.000000	0.392356
1256.000000	0.393952
1255.000000	0.395451
1254.000000	0.397461
1253.000000	0.399328
1252.000000	0.401040
1251.000000	0.403149
1250.000000	0.405119
1249.000000	0.406727
1248.000000	0.408309
1247.000000	0.410035
1246.000000	0.412556
1245.000000	0.415207
1244.000000	0.416791
1243.000000	0.418087
1242.000000	0.420213
1241.000000	0.422373
1240.000000	0.423384
1239.000000	0.424981
1238.000000	0.427066
1237.000000	0.428843
1236.000000	0.429497
1235.000000	0.430444
1234.000000	0.431967
1233.000000	0.433636
1232.000000	0.435389
1231.000000	0.435960
1230.000000	0.436232
1229.000000	0.436717
1228.000000	0.436951
1227.000000	0.437086
1226.000000	0.437285
1225.000000	0.437271
1224.000000	0.436957
1223.000000	0.437050
1222.000000	0.436458
1221.000000	0.435397
1220.000000	0.434387
1219.000000	0.433602
1218.000000	0.432601
1217.000000	0.432166
1216.000000	0.432727
1215.000000	0.433517
1214.000000	0.434521
1213.000000	0.436146
1212.000000	0.438093
1211.000000	0.440796
1210.000000	0.443216
1209.000000	0.446526
1208.000000	0.450496
1207.000000	0.453672
1206.000000	0.458374
1205.000000	0.463365
1204.000000	0.467241
1203.000000	0.471564
1202.000000	0.476627
1201.000000	0.480727
1200.000000	0.484541
1199.000000	0.488772
1198.000000	0.493682
1197.000000	0.497271
1196.000000	0.500698
1195.000000	0.504552
1194.000000	0.507978
1193.000000	0.511616
1192.000000	0.515358
1191.000000	0.518542
1190.000000	0.522698
1189.000000	0.525713
1188.000000	0.529087
1187.000000	0.533671
1186.000000	0.538349
1185.000000	0.542232
1184.000000	0.547229
1183.000000	0.551707
1182.000000	0.555489
1181.000000	0.559886
1180.000000	0.563920
1179.000000	0.568030
1178.000000	0.571407
1177.000000	0.574481
1176.000000	0.577502
1175.000000	0.580871
1174.000000	0.584260
1173.000000	0.587539
1172.000000	0.590719
1171.000000	0.593932
1170.000000	0.597065
1169.000000	0.599941
1168.000000	0.602338
1167.000000	0.604197
1166.000000	0.606063
1165.000000	0.608009
1164.000000	0.610072
1163.000000	0.612302
1162.000000	0.614023
1161.000000	0.615944
1160.000000	0.617415
1159.000000	0.619494
1158.000000	0.621251
1157.000000	0.622690
1156.000000	0.623690
1155.000000	0.624970
1154.000000	0.626637
1153.000000	0.628120
1152.000000	0.628928
1151.000000	0.630777
1150.000000	0.632156
1149.000000	0.633625
1148.000000	0.635645
1147.000000	0.637471
1146.000000	0.639954
1145.000000	0.641499
1144.000000	0.644095
1143.000000	0.646403
1142.000000	0.647302
1141.000000	0.647378
1140.000000	0.650098
1139.000000	0.652147
1138.000000	0.651514
1137.000000	0.652139
1136.000000	0.652016
1135.000000	0.653194
1134.000000	0.654889
1133.000000	0.656114
1132.000000	0.656275
1131.000000	0.655804
1130.000000	0.657853
1129.000000	0.658128
1128.000000	0.660506
1127.000000	0.662159
1126.000000	0.665279
1125.000000	0.667687
1124.000000	0.669184
1123.000000	0.672862
1122.000000	0.676098
1121.000000	0.679039
1120.000000	0.682613
1119.000000	0.686272
1118.000000	0.690457
1117.000000	0.694354
1116.000000	0.698765
1115.000000	0.703312
1114.000000	0.708283
1113.000000	0.712812
1112.000000	0.716923
1111.000000	0.721029
1110.000000	0.724646
1109.000000	0.727998
1108.000000	0.731339
1107.000000	0.734864
1106.000000	0.739088
1105.000000	0.741643
1104.000000	0.745518
1103.000000	0.749482
1102.000000	0.752598
1101.000000	0.756793
1100.000000	0.761062
1099.000000	0.765162
1098.000000	0.770268
1097.000000	0.774563
1096.000000	0.779492
1095.000000	0.784918
1094.000000	0.790970
1093.000000	0.796770
1092.000000	0.803133
1091.000000	0.810025
1090.000000	0.817613
1089.000000	0.825393
1088.000000	0.833724
1087.000000	0.841790
1086.000000	0.850698
1085.000000	0.859528
1084.000000	0.869681
1083.000000	0.879699
1082.000000	0.889880
1081.000000	0.900132
1080.000000	0.910883
1079.000000	0.922566
1078.000000	0.934388
1077.000000	0.945961
1076.000000	0.958208
1075.000000	0.970452
1074.000000	0.983798
1073.000000	0.996939
1072.000000	1.010677
1071.000000	1.025555
1070.000000	1.040242
1069.000000	1.054769
1068.000000	1.070004
1067.000000	1.085931
1066.000000	1.102301
1065.000000	1.118827
1064.000000	1.135543
1063.000000	1.154215
1062.000000	1.171944
1061.000000	1.189659
1060.000000	1.207868
1059.000000	1.227431
1058.000000	1.247285
1057.000000	1.266535
1056.000000	1.286610
1055.000000	1.306879
1054.000000	1.328258
1053.000000	1.350114
1052.000000	1.371006
1051.000000	1.393065
1050.000000	1.415302
1049.000000	1.438643
1048.000000	1.461066
1047.000000	1.483907
1046.000000	1.508448
1045.000000	1.533818
1044.000000	1.559575
1043.000000	1.585378
1042.000000	1.612207
1041.000000	1.639083
1040.000000	1.665129
1039.000000	1.692308
1038.000000	1.720918
1037.000000	1.749917
1036.000000	1.779062
1035.000000	1.808342
1034.000000	1.837299
1033.000000	1.867093
1032.000000	1.898033
1031.000000	1.928760
1030.000000	1.959847
1029.000000	1.989540
1028.000000	2.019939
1027.000000	2.050666
1026.000000	2.081934
1025.000000	2.111856
1024.000000	2.139539
1023.000000	2.166977
1022.000000	2.194613
1021.000000	2.223069
1020.000000	2.250391
1019.000000	2.277259
1018.000000	2.303763
1017.000000	2.331902
1016.000000	2.362113
1015.000000	2.393129
1014.000000	2.426196
1013.000000	2.460346
1012.000000	2.499622
1011.000000	2.545069
1010.000000	2.593413
1009.000000	2.644865
1008.000000	2.701074
1007.000000	2.762932
1006.000000	2.831930
1005.000000	2.900471
1004.000000	2.970102
1003.000000	3.044100
1002.000000	3.117615
1001.000000	3.187685
1000.000000	3.257983
999.000000	3.323669
998.000000	3.383791
997.000000	3.439563
996.000000	3.487937
995.000000	3.533549
994.000000	3.577232
993.000000	3.620039
992.000000	3.664055
991.000000	3.708879
990.000000	3.759638
989.000000	3.816679
988.000000	3.881533
987.000000	3.951406
986.000000	4.022837
985.000000	4.102624
984.000000	4.189436
983.000000	4.270911
982.000000	4.341670
981.000000	4.402064
980.000000	4.452089
979.000000	4.483181
978.000000	4.487415
977.000000	4.465522
976.000000	4.417364
975.000000	4.340029
974.000000	4.235801
973.000000	4.113104
972.000000	3.970828
971.000000	3.811408
970.000000	3.650021
969.000000	3.487139
968.000000	3.324699
967.000000	3.162891
966.000000	3.014282
965.000000	2.875957
964.000000	2.742430
963.000000	2.624045
962.000000	2.515433
961.000000	2.415308
960.000000	2.324513
959.000000	2.244921
958.000000	2.173834
957.000000	2.107944
956.000000	2.047238
955.000000	1.990976
954.000000	1.938185
953.000000	1.886311
952.000000	1.838577
951.000000	1.792942
950.000000	1.749298
949.000000	1.707139
948.000000	1.665724
947.000000	1.626717
946.000000	1.589728
945.000000	1.555528
944.000000	1.524825
943.000000	1.496360
942.000000	1.470311
941.000000	1.446687
940.000000	1.424927
939.000000	1.404924
938.000000	1.388947
937.000000	1.373391
936.000000	1.358268
935.000000	1.345755
934.000000	1.334285
933.000000	1.322855
932.000000	1.314495
931.000000	1.307377
930.000000	1.300792
929.000000	1.294592
928.000000	1.291129
927.000000	1.288902
926.000000	1.286200
925.000000	1.284734
924.000000	1.285475
923.000000	1.288012
922.000000	1.291562
921.000000	1.295382
920.000000	1.300682
919.000000	1.306446
918.000000	1.313901
917.000000	1.320441
916.000000	1.327228
915.000000	1.332963
914.000000	1.337543
913.000000	1.342904
912.000000	1.346182
911.000000	1.351453
910.000000	1.357597
909.000000	1.362007
908.000000	1.367776
907.000000	1.374366
906.000000	1.379562
905.000000	1.384702
904.000000	1.392101
903.000000	1.398956
902.000000	1.406836
901.000000	1.418138
900.000000	1.430788
899.000000	1.445369
898.000000	1.461679
897.000000	1.481781
896.000000	1.504252
895.000000	1.529236
894.000000	1.558383
893.000000	1.592149
892.000000	1.632643
891.000000	1.679475
890.000000	1.729787
889.000000	1.789052
888.000000	1.856978
887.000000	1.934121
886.000000	2.018716
885.000000	2.107250
884.000000	2.206125
883.000000	2.310854
882.000000	2.416356
881.000000	2.522449
880.000000	2.622779
879.000000	2.719780
878.000000	2.806174
877.000000	2.881006
876.000000	2.936768
875.000000	2.972568
874.000000	2.990187
873.000000	2.982795
872.000000	2.954827
871.000000	2.907097
870.000000	2.843704
869.000000	2.773888
868.000000	2.683539
867.000000	2.591921
866.000000	2.496415
865.000000	2.401678
864.000000	2.313049
863.000000	2.215339
862.000000	2.131817
861.000000	2.051759
860.000000	1.980042
859.000000	1.862605
858.000000	1.801014
857.000000	1.743716
856.000000	1.695729
855.000000	1.652128
854.000000	1.615392
853.000000	1.585269
852.000000	1.556398
851.000000	1.531797
850.000000	1.509311
849.000000	1.488861
848.000000	1.473008
847.000000	1.456946
846.000000	1.444138
845.000000	1.432007
844.000000	1.418486
843.000000	1.407319
842.000000	1.397633
841.000000	1.386648
840.000000	1.375895
839.000000	1.367084
838.000000	1.357570
837.000000	1.347663
836.000000	1.336866
835.000000	1.326137
834.000000	1.316149
833.000000	1.304633
832.000000	1.293998
831.000000	1.282670
830.000000	1.272715
829.000000	1.262307
828.000000	1.252132
827.000000	1.242714
826.000000	1.232400
825.000000	1.221878
824.000000	1.213157
823.000000	1.203839
822.000000	1.194412
821.000000	1.185366
820.000000	1.176980
819.000000	1.166489
818.000000	1.159915
817.000000	1.151628
816.000000	1.142635
815.000000	1.133082
814.000000	1.124833
813.000000	1.115917
812.000000	1.107663
811.000000	1.099668
810.000000	1.091627
809.000000	1.083630
808.000000	1.075682
807.000000	1.067638
806.000000	1.060224
805.000000	1.054141
804.000000	1.048356
803.000000	1.041655
802.000000	1.035350
801.000000	1.030343
800.000000	1.024939
799.000000	1.019572
798.000000	1.014713
797.000000	1.010792
796.000000	1.006458
795.000000	1.002316
794.000000	0.999096
793.000000	0.995710
792.000000	0.994176
791.000000	0.991819
790.000000	0.989537
789.000000	0.989305
788.000000	0.987370
787.000000	0.987579
786.000000	0.987269
785.000000	0.988027
784.000000	0.989407
783.000000	0.990303
782.000000	0.992491
781.000000	0.995113
780.000000	1.000000
779.000000	1.004504
778.000000	1.009556
777.000000	1.014830
776.000000	1.020513
775.000000	1.026556
774.000000	1.033267
773.000000	1.039282
772.000000	1.045186
771.000000	1.050758
770.000000	1.057090
769.000000	1.063066
768.000000	1.068257
767.000000	1.072560
766.000000	1.075640
765.000000	1.078333
764.000000	1.080965
763.000000	1.082300
762.000000	1.083198
761.000000	1.083598
760.000000	1.082951
759.000000	1.082060
758.000000	1.080720
757.000000	1.079284
756.000000	1.078358
755.000000	1.076641
754.000000	1.074810
753.000000	1.073553
752.000000	1.071467
751.000000	1.070236
750.000000	1.069680
749.000000	1.068603
748.000000	1.067254
747.000000	1.065536
746.000000	1.065071
745.000000	1.064459
744.000000	1.063537
743.000000	1.062198
742.000000	1.060295
741.000000	1.059153
740.000000	1.058069
739.000000	1.057053
738.000000	1.056686
737.000000	1.055562
736.000000	1.053787
735.000000	1.052662
734.000000	1.051672
733.000000	1.050332
732.000000	1.049407
731.000000	1.048643
730.000000	1.047962
729.000000	1.046843
728.000000	1.046097
727.000000	1.045542
726.000000	1.045055
725.000000	1.044561
724.000000	1.044146
723.000000	1.043451
722.000000	1.042909
721.000000	1.043012
720.000000	1.043515
719.000000	1.044313
718.000000	1.044442
717.000000	1.045142
716.000000	1.045764
715.000000	1.047401
714.000000	1.050428
713.000000	1.053101
712.000000	1.055047
711.000000	1.057754
710.000000	1.060938
709.000000	1.064588
708.000000	1.068661
707.000000	1.072624
706.000000	1.076685
705.000000	1.080911
704.000000	1.085446
703.000000	1.090642
702.000000	1.096014
701.000000	1.101067
700.000000	1.107003
699.000000	1.111988
698.000000	1.117734
697.000000	1.123383
696.000000	1.128867
695.000000	1.133939
694.000000	1.138576
693.000000	1.142935
692.000000	1.146612
691.000000	1.150703
690.000000	1.154315
689.000000	1.157485
688.000000	1.160116
687.000000	1.163441
686.000000	1.165325
685.000000	1.167679
684.000000	1.170397
683.000000	1.172780
682.000000	1.174984
681.000000	1.177669
680.000000	1.179721
679.000000	1.181921
678.000000	1.185448
677.000000	1.188749
676.000000	1.191610
675.000000	1.193548
674.000000	1.197114
673.000000	1.200065
672.000000	1.203969
671.000000	1.207212
670.000000	1.210248
669.000000	1.212876
668.000000	1.215080
667.000000	1.215916
666.000000	1.218468
665.000000	1.218600
664.000000	1.217092
663.000000	1.214931
662.000000	1.213115
661.000000	1.209655
660.000000	1.206591
659.000000	1.202486
658.000000	1.200258
657.000000	1.196866
656.000000	1.193971
655.000000	1.191135
654.000000	1.189322
653.000000	1.189548
652.000000	1.188549
651.000000	1.189637
650.000000	1.189122
649.000000	1.189596
648.000000	1.191005
647.000000	1.193435
646.000000	1.194873
645.000000	1.196567
644.000000	1.197299
643.000000	1.198809
642.000000	1.202228
641.000000	1.204113
640.000000	1.205881
639.000000	1.207121
638.000000	1.208492
637.000000	1.209770
636.000000	1.212114
635.000000	1.212553
634.000000	1.214703
633.000000	1.216363
632.000000	1.217829
631.000000	1.221028
630.000000	1.224753
629.000000	1.229878
628.000000	1.235726
627.000000	1.242483
626.000000	1.249696
625.000000	1.257201
624.000000	1.267224
623.000000	1.277543
622.000000	1.288738
621.000000	1.300463
620.000000	1.312065
619.000000	1.324556
618.000000	1.339093
617.000000	1.354216
616.000000	1.370993
615.000000	1.385965
614.000000	1.403675
613.000000	1.422318
612.000000	1.443006
611.000000	1.463435
610.000000	1.484830
609.000000	1.508438
608.000000	1.530128
607.000000	1.556058
606.000000	1.582631
605.000000	1.608757
604.000000	1.637069
603.000000	1.666154
602.000000	1.697230
601.000000	1.730017
600.000000	1.765239
599.000000	1.801786
598.000000	1.840655
597.000000	1.882766
596.000000	1.926900
595.000000	1.972870
594.000000	2.023349
593.000000	2.075839
592.000000	2.130550
591.000000	2.185841
590.000000	2.243605
589.000000	2.299523
588.000000	2.355274
587.000000	2.406914
586.000000	2.454333
585.000000	2.493843
584.000000	2.526970
583.000000	2.551412
582.000000	2.569128
581.000000	2.579409
580.000000	2.582229
579.000000	2.581304
578.000000	2.577238
577.000000	2.574706
576.000000	2.572592
575.000000	2.572795
574.000000	2.575341
573.000000	2.579514
572.000000	2.584978
571.000000	2.588173
570.000000	2.587990
569.000000	2.579989
568.000000	2.561924
567.000000	2.534021
566.000000	2.494632
565.000000	2.444799
564.000000	2.386439
563.000000	2.321436
562.000000	2.252709
561.000000	2.181591
560.000000	2.113838
559.000000	2.047411
558.000000	1.985059
557.000000	1.928318
556.000000	1.876342
555.000000	1.830421
554.000000	1.789164
553.000000	1.754141
552.000000	1.721276
551.000000	1.692774
550.000000	1.667901
549.000000	1.646587
548.000000	1.627976
547.000000	1.611473
546.000000	1.596633
545.000000	1.584723
544.000000	1.575737
543.000000	1.568198
542.000000	1.562112
541.000000	1.557405
540.000000	1.553996
539.000000	1.550613
538.000000	1.550006
537.000000	1.549505
536.000000	1.549672
535.000000	1.550747
534.000000	1.554294
533.000000	1.557532
532.000000	1.560384
531.000000	1.564733
530.000000	1.570898
529.000000	1.577302
528.000000	1.583405
527.000000	1.590990
526.000000	1.599148
525.000000	1.608507
524.000000	1.617902
523.000000	1.628302
522.000000	1.638516
521.000000	1.648184
520.000000	1.658829
519.000000	1.668719
518.000000	1.678917
517.000000	1.689202
516.000000	1.699092
515.000000	1.709453
514.000000	1.720180
513.000000	1.730580
512.000000	1.739834
511.000000	1.747019
510.000000	1.751224
509.000000	1.752402
508.000000	1.749757
507.000000	1.741680
506.000000	1.729552
505.000000	1.713838
504.000000	1.695138
503.000000	1.673934
502.000000	1.652092
501.000000	1.630557
500.000000	1.610072
499.000000	1.591348
498.000000	1.573332
497.000000	1.556173
496.000000	1.542041
495.000000	1.529835
494.000000	1.519430
493.000000	1.510943
492.000000	1.503841
491.000000	1.498191
490.000000	1.494080
489.000000	1.490477
488.000000	1.488396
487.000000	1.487479
486.000000	1.487213
485.000000	1.488183
484.000000	1.489930
483.000000	1.493625
482.000000	1.497280
481.000000	1.502080
480.000000	1.507917
479.000000	1.514257
478.000000	1.521954
477.000000	1.529620
476.000000	1.536993
475.000000	1.544982
474.000000	1.553328
473.000000	1.561206
472.000000	1.568496
471.000000	1.574362
470.000000	1.578829
469.000000	1.582344
468.000000	1.585791
467.000000	1.586775
466.000000	1.584941
465.000000	1.582256
464.000000	1.578212
463.000000	1.572882
462.000000	1.567115
461.000000	1.559555
460.000000	1.551617
459.000000	1.543689
458.000000	1.536282
457.000000	1.529547
456.000000	1.522014
455.000000	1.515196
454.000000	1.509507
453.000000	1.504622
452.000000	1.500428
451.000000	1.496079
450.000000	1.492153
449.000000	1.490398
448.000000	1.488568
447.000000	1.487154
446.000000	1.486370
445.000000	1.485890
444.000000	1.486273
443.000000	1.487078
442.000000	1.488003
441.000000	1.488785
440.000000	1.490807
439.000000	1.491916
438.000000	1.493573
437.000000	1.496115
436.000000	1.497740
435.000000	1.499244
434.000000	1.501518
433.000000	1.503596
432.000000	1.506409
431.000000	1.509900
430.000000	1.512835
429.000000	1.516687
428.000000	1.520201
427.000000	1.524738
426.000000	1.528150
425.000000	1.533047
424.000000	1.538316
423.000000	1.544279
422.000000	1.549398
421.000000	1.555735
420.000000	1.561544
419.000000	1.568727
418.000000	1.573906
417.000000	1.581143
416.000000	1.587392
415.000000	1.592469
414.000000	1.596891
413.000000	1.604199
412.000000	1.609998
411.000000	1.615409
410.000000	1.619997
409.000000	1.625984
408.000000	1.630495
407.000000	1.636291
406.000000	1.640988
405.000000	1.646158
404.000000	1.649857
403.000000	1.655266
402.000000	1.660049
401.000000	1.665733
400.000000	1.671047
399.000000	1.675836
398.000000	1.682838
397.000000	1.689455
396.000000	1.695113
395.000000	1.703311
394.000000	1.711871
393.000000	1.721586
392.000000	1.731830
391.000000	1.742451
390.000000	1.753120
389.000000	1.765662
388.000000	1.779853
387.000000	1.794281
386.000000	1.809434
385.000000	1.824910
384.000000	1.841860
383.000000	1.860487
382.000000	1.880141
381.000000	1.899678
380.000000	1.922164
379.000000	1.943740
378.000000	1.969153
377.000000	1.994870
376.000000	2.021413
375.000000	2.049243
374.000000	2.077351
373.000000	2.104864
372.000000	2.132193
371.000000	2.157329
370.000000	2.180300
369.000000	2.203564
368.000000	2.225110
367.000000	2.243146
366.000000	2.263263
365.000000	2.286508
364.000000	2.310497
363.000000	2.337766
362.000000	2.364455
361.000000	2.399285
360.000000	2.434874
359.000000	2.476522
358.000000	2.512927
357.000000	2.560336
356.000000	2.608556
355.000000	2.658563
354.000000	2.710602
353.000000	2.763877
352.000000	2.820375
351.000000	2.878173
350.000000	2.931112
349.000000	2.982792
348.000000	3.025964
347.000000	3.061482
346.000000	3.082141
345.000000	3.093127
344.000000	3.087678
343.000000	3.076386
342.000000	3.058028
341.000000	3.036219
340.000000	3.019275
339.000000	3.005196
338.000000	2.993103
337.000000	2.993745
336.000000	2.999805
335.000000	3.014471
334.000000	3.036066
333.000000	3.063441
332.000000	3.097111
331.000000	3.134984
330.000000	3.174783
329.000000	3.217418
328.000000	3.255950
327.000000	3.290608
326.000000	3.319388
325.000000	3.345044
324.000000	3.364928
323.000000	3.380958
322.000000	3.395032
321.000000	3.406412
320.000000	3.417265
319.000000	3.432523
318.000000	3.450085
317.000000	3.469822
316.000000	3.493193
315.000000	3.522633
314.000000	3.552949
313.000000	3.586952
312.000000	3.623850
311.000000	3.662354
310.000000	3.702359
309.000000	3.741472
308.000000	3.778778
307.000000	3.809625
306.000000	3.832148
305.000000	3.844535
304.000000	3.846204
303.000000	3.835420
302.000000	3.815452
301.000000	3.786111
300.000000	3.751313
299.000000	3.714336
298.000000	3.678210
297.000000	3.641891
296.000000	3.610001
295.000000	3.584552
294.000000	3.564441
293.000000	3.549061
292.000000	3.537215
291.000000	3.527911
290.000000	3.519415
289.000000	3.510157
288.000000	3.500259
287.000000	3.487037
286.000000	3.470957
285.000000	3.450990
284.000000	3.427955
283.000000	3.401840
282.000000	3.375076
281.000000	3.346831
280.000000	3.320703
279.000000	3.297255
278.000000	3.275507
277.000000	3.257513
276.000000	3.241150
275.000000	3.226677
274.000000	3.212642
273.000000	3.194957
272.000000	3.174223
271.000000	3.150827
270.000000	3.124751
269.000000	3.095416
268.000000	3.064979
267.000000	3.034916
266.000000	3.006045
265.000000	2.979744
264.000000	2.954424
263.000000	2.932480
262.000000	2.913175
261.000000	2.895956
260.000000	2.881304
259.000000	2.870644
258.000000	2.861457
257.000000	2.856952
256.000000	2.857442
255.000000	2.862639
254.000000	2.873181
253.000000	2.888511
252.000000	2.909639
251.000000	2.935862
250.000000	2.968395
249.000000	3.005358
248.000000	3.047460
247.000000	3.095015
246.000000	3.146832
245.000000	3.204073
244.000000	3.262691
243.000000	3.322295
242.000000	3.383931
241.000000	3.443351
240.000000	3.500879
239.000000	3.554601
238.000000	3.603515
237.000000	3.645305
236.000000	3.678686
235.000000	3.704637
234.000000	3.719497
233.000000	3.722665
232.000000	3.715252
231.000000	3.701347
230.000000	3.683591
229.000000	3.666014
228.000000	3.651673
227.000000	3.639821
226.000000	3.629075
225.000000	3.617911
224.000000	3.607827
223.000000	3.599441
222.000000	3.591931
221.000000	3.585754
220.000000	3.577774
219.000000	3.567223
218.000000	3.551504
217.000000	3.528147
216.000000	3.496198
215.000000	3.455464
214.000000	3.405524
213.000000	3.343655
212.000000	3.274117
211.000000	3.197709
210.000000	3.115242
209.000000	3.030149
208.000000	2.942381
207.000000	2.854328
206.000000	2.764695
205.000000	2.672593
204.000000	2.578096
203.000000	2.474195
202.000000	2.360578
201.000000	2.230499
200.000000	2.085246
