PE UV       SUBTECH     SPECTRUM    ASCII       PEDS        4.00        
   -1
SG65-000-0036.asc
10/10/06
18:08:07.00
10/10/06
18:08:07.00
Analyst

360.000000
1
Lambda 950
950N7030103
PerkinElmer UV WinLab 5.2.0.0646 / 1.61.00 Lambda 900

0
0
3350/servo 860.8/2
0
0
UV/VIS
1
1
1
RBeamAtt,SBeamAtt,uv/vis/nir detector
0
0
0
0
Program
Program
3350/servo 860.8/2
3350/0.2 860.8/0.2
3350/0.2 860.8/0.2
0
1
 
 
 
0
 
860.8
319.2
860.8
Front
100
 
S:100 R:100
 
0
0
0
 
0
 
 
 
0
 
 
0
0
0
0
0
 
 
 
 
0
0
#HDR
-1
-1
#GR
nm
A
1.0
0.0
1350.000000
-1.000000
991
8
1.483814
0.371999
#DATA
1350.000000	0.371999
1349.000000	0.373114
1348.000000	0.373947
1347.000000	0.374532
1346.000000	0.375152
1345.000000	0.375666
1344.000000	0.375927
1343.000000	0.376553
1342.000000	0.377274
1341.000000	0.378032
1340.000000	0.378649
1339.000000	0.379248
1338.000000	0.379823
1337.000000	0.380286
1336.000000	0.380914
1335.000000	0.381638
1334.000000	0.382128
1333.000000	0.382607
1332.000000	0.383298
1331.000000	0.383887
1330.000000	0.384698
1329.000000	0.385654
1328.000000	0.385973
1327.000000	0.386442
1326.000000	0.387195
1325.000000	0.387951
1324.000000	0.388467
1323.000000	0.388952
1322.000000	0.389887
1321.000000	0.390473
1320.000000	0.391278
1319.000000	0.391822
1318.000000	0.392773
1317.000000	0.393479
1316.000000	0.394181
1315.000000	0.395216
1314.000000	0.396113
1313.000000	0.396623
1312.000000	0.397354
1311.000000	0.398335
1310.000000	0.399381
1309.000000	0.400142
1308.000000	0.400781
1307.000000	0.401591
1306.000000	0.402589
1305.000000	0.403378
1304.000000	0.404341
1303.000000	0.405146
1302.000000	0.406110
1301.000000	0.406808
1300.000000	0.407786
1299.000000	0.408579
1298.000000	0.409479
1297.000000	0.410279
1296.000000	0.411281
1295.000000	0.412281
1294.000000	0.413052
1293.000000	0.413639
1292.000000	0.414629
1291.000000	0.415286
1290.000000	0.416205
1289.000000	0.416908
1288.000000	0.417590
1287.000000	0.418299
1286.000000	0.419093
1285.000000	0.419812
1284.000000	0.420223
1283.000000	0.420795
1282.000000	0.421407
1281.000000	0.422085
1280.000000	0.422439
1279.000000	0.422712
1278.000000	0.423161
1277.000000	0.423391
1276.000000	0.423783
1275.000000	0.424106
1274.000000	0.424414
1273.000000	0.424511
1272.000000	0.424582
1271.000000	0.424740
1270.000000	0.424792
1269.000000	0.424825
1268.000000	0.424932
1267.000000	0.424910
1266.000000	0.424887
1265.000000	0.424899
1264.000000	0.424882
1263.000000	0.424721
1262.000000	0.424605
1261.000000	0.424429
1260.000000	0.424203
1259.000000	0.424121
1258.000000	0.423950
1257.000000	0.423703
1256.000000	0.423512
1255.000000	0.423211
1254.000000	0.422926
1253.000000	0.422741
1252.000000	0.422553
1251.000000	0.422400
1250.000000	0.422246
1249.000000	0.422086
1248.000000	0.422064
1247.000000	0.422079
1246.000000	0.422048
1245.000000	0.422068
1244.000000	0.421969
1243.000000	0.422034
1242.000000	0.422153
1241.000000	0.422511
1240.000000	0.422823
1239.000000	0.422974
1238.000000	0.423337
1237.000000	0.423850
1236.000000	0.424516
1235.000000	0.425149
1234.000000	0.425803
1233.000000	0.426490
1232.000000	0.427186
1231.000000	0.428003
1230.000000	0.428869
1229.000000	0.429862
1228.000000	0.430988
1227.000000	0.432106
1226.000000	0.433269
1225.000000	0.434468
1224.000000	0.435584
1223.000000	0.436845
1222.000000	0.438249
1221.000000	0.439711
1220.000000	0.441241
1219.000000	0.442770
1218.000000	0.444383
1217.000000	0.446017
1216.000000	0.447754
1215.000000	0.449536
1214.000000	0.451310
1213.000000	0.453155
1212.000000	0.455060
1211.000000	0.457026
1210.000000	0.459196
1209.000000	0.461434
1208.000000	0.463560
1207.000000	0.465714
1206.000000	0.467868
1205.000000	0.470372
1204.000000	0.472807
1203.000000	0.475297
1202.000000	0.477922
1201.000000	0.480422
1200.000000	0.482997
1199.000000	0.485735
1198.000000	0.488720
1197.000000	0.491570
1196.000000	0.494403
1195.000000	0.497246
1194.000000	0.500170
1193.000000	0.503129
1192.000000	0.506096
1191.000000	0.509143
1190.000000	0.512154
1189.000000	0.514959
1188.000000	0.517648
1187.000000	0.520654
1186.000000	0.523560
1185.000000	0.526257
1184.000000	0.528933
1183.000000	0.531501
1182.000000	0.533966
1181.000000	0.536556
1180.000000	0.539166
1179.000000	0.541690
1178.000000	0.544125
1177.000000	0.546613
1176.000000	0.549248
1175.000000	0.551916
1174.000000	0.554522
1173.000000	0.557088
1172.000000	0.559821
1171.000000	0.562301
1170.000000	0.564989
1169.000000	0.567602
1168.000000	0.570317
1167.000000	0.573238
1166.000000	0.576251
1165.000000	0.579173
1164.000000	0.582538
1163.000000	0.586056
1162.000000	0.589738
1161.000000	0.593345
1160.000000	0.597289
1159.000000	0.601405
1158.000000	0.605363
1157.000000	0.608849
1156.000000	0.613076
1155.000000	0.617405
1154.000000	0.621448
1153.000000	0.625033
1152.000000	0.628343
1151.000000	0.631294
1150.000000	0.634737
1149.000000	0.637326
1148.000000	0.639654
1147.000000	0.641359
1146.000000	0.643071
1145.000000	0.644766
1144.000000	0.646539
1143.000000	0.647778
1142.000000	0.648784
1141.000000	0.649564
1140.000000	0.650078
1139.000000	0.650739
1138.000000	0.651839
1137.000000	0.652904
1136.000000	0.653448
1135.000000	0.654011
1134.000000	0.654990
1133.000000	0.655703
1132.000000	0.656656
1131.000000	0.656236
1130.000000	0.656469
1129.000000	0.656597
1128.000000	0.656882
1127.000000	0.656442
1126.000000	0.655846
1125.000000	0.654601
1124.000000	0.652854
1123.000000	0.650723
1122.000000	0.648020
1121.000000	0.645061
1120.000000	0.641060
1119.000000	0.636387
1118.000000	0.631643
1117.000000	0.626444
1116.000000	0.620743
1115.000000	0.614741
1114.000000	0.608566
1113.000000	0.602256
1112.000000	0.596171
1111.000000	0.590058
1110.000000	0.583716
1109.000000	0.578330
1108.000000	0.573155
1107.000000	0.568328
1106.000000	0.564051
1105.000000	0.559645
1104.000000	0.556219
1103.000000	0.553009
1102.000000	0.549899
1101.000000	0.547165
1100.000000	0.544784
1099.000000	0.542809
1098.000000	0.540957
1097.000000	0.539698
1096.000000	0.538644
1095.000000	0.537853
1094.000000	0.537339
1093.000000	0.536988
1092.000000	0.536879
1091.000000	0.536959
1090.000000	0.537323
1089.000000	0.537958
1088.000000	0.538795
1087.000000	0.539743
1086.000000	0.540922
1085.000000	0.542302
1084.000000	0.543837
1083.000000	0.545476
1082.000000	0.547421
1081.000000	0.549779
1080.000000	0.551954
1079.000000	0.554581
1078.000000	0.557312
1077.000000	0.560050
1076.000000	0.562902
1075.000000	0.565974
1074.000000	0.569134
1073.000000	0.572450
1072.000000	0.576072
1071.000000	0.580023
1070.000000	0.583530
1069.000000	0.587150
1068.000000	0.590861
1067.000000	0.594550
1066.000000	0.598288
1065.000000	0.601951
1064.000000	0.605828
1063.000000	0.610219
1062.000000	0.614396
1061.000000	0.618950
1060.000000	0.623534
1059.000000	0.628678
1058.000000	0.633769
1057.000000	0.638934
1056.000000	0.644494
1055.000000	0.650608
1054.000000	0.657128
1053.000000	0.663380
1052.000000	0.669918
1051.000000	0.676938
1050.000000	0.684703
1049.000000	0.692270
1048.000000	0.699976
1047.000000	0.708484
1046.000000	0.717754
1045.000000	0.726758
1044.000000	0.736679
1043.000000	0.747707
1042.000000	0.758429
1041.000000	0.769230
1040.000000	0.780609
1039.000000	0.792728
1038.000000	0.803898
1037.000000	0.814853
1036.000000	0.824533
1035.000000	0.832946
1034.000000	0.840412
1033.000000	0.846643
1032.000000	0.851015
1031.000000	0.854063
1030.000000	0.855407
1029.000000	0.855551
1028.000000	0.855310
1027.000000	0.854462
1026.000000	0.853338
1025.000000	0.852056
1024.000000	0.850832
1023.000000	0.850530
1022.000000	0.850855
1021.000000	0.852132
1020.000000	0.854929
1019.000000	0.858412
1018.000000	0.862479
1017.000000	0.867519
1016.000000	0.874196
1015.000000	0.882826
1014.000000	0.892341
1013.000000	0.902093
1012.000000	0.913455
1011.000000	0.926242
1010.000000	0.940013
1009.000000	0.954976
1008.000000	0.970577
1007.000000	0.987362
1006.000000	1.003857
1005.000000	1.021723
1004.000000	1.040931
1003.000000	1.060246
1002.000000	1.080182
1001.000000	1.099595
1000.000000	1.120786
999.000000	1.143764
998.000000	1.166084
997.000000	1.187389
996.000000	1.208885
995.000000	1.232085
994.000000	1.258048
993.000000	1.283424
992.000000	1.307454
991.000000	1.331381
990.000000	1.356779
989.000000	1.384322
988.000000	1.409959
987.000000	1.431413
986.000000	1.450943
985.000000	1.467599
984.000000	1.477357
983.000000	1.482446
982.000000	1.483814
981.000000	1.477693
980.000000	1.461945
979.000000	1.439247
978.000000	1.413094
977.000000	1.384114
976.000000	1.351647
975.000000	1.317261
974.000000	1.284068
973.000000	1.250980
972.000000	1.218924
971.000000	1.189674
970.000000	1.162305
969.000000	1.136655
968.000000	1.113352
967.000000	1.092764
966.000000	1.073180
965.000000	1.053909
964.000000	1.035717
963.000000	1.017231
962.000000	0.997927
961.000000	0.978131
960.000000	0.957693
959.000000	0.937046
958.000000	0.917181
957.000000	0.897005
956.000000	0.876577
955.000000	0.857071
954.000000	0.837821
953.000000	0.820062
952.000000	0.803779
951.000000	0.788836
950.000000	0.775011
949.000000	0.762367
948.000000	0.750272
947.000000	0.739520
946.000000	0.730241
945.000000	0.721644
944.000000	0.713810
943.000000	0.707054
942.000000	0.701082
941.000000	0.695965
940.000000	0.691142
939.000000	0.686745
938.000000	0.683002
937.000000	0.679897
936.000000	0.677481
935.000000	0.675229
934.000000	0.673432
933.000000	0.672441
932.000000	0.671562
931.000000	0.670959
930.000000	0.670997
929.000000	0.671713
928.000000	0.672299
927.000000	0.673423
926.000000	0.674065
925.000000	0.674646
924.000000	0.675039
923.000000	0.674973
922.000000	0.674516
921.000000	0.673343
920.000000	0.671541
919.000000	0.668823
918.000000	0.666242
917.000000	0.663286
916.000000	0.659664
915.000000	0.655933
914.000000	0.652750
913.000000	0.649697
912.000000	0.646900
911.000000	0.644095
910.000000	0.641590
909.000000	0.639655
908.000000	0.637588
907.000000	0.635864
906.000000	0.634929
905.000000	0.633802
904.000000	0.633345
903.000000	0.632801
902.000000	0.632742
901.000000	0.632377
900.000000	0.632707
899.000000	0.633290
898.000000	0.633790
897.000000	0.634816
896.000000	0.635467
895.000000	0.636679
894.000000	0.638029
893.000000	0.639077
892.000000	0.640447
891.000000	0.642407
890.000000	0.644493
889.000000	0.646371
888.000000	0.648160
887.000000	0.650139
886.000000	0.651794
885.000000	0.653645
884.000000	0.655378
883.000000	0.656865
882.000000	0.657925
881.000000	0.658429
880.000000	0.658773
879.000000	0.658927
878.000000	0.658940
877.000000	0.658350
876.000000	0.657438
875.000000	0.656693
874.000000	0.655721
873.000000	0.654280
872.000000	0.653268
871.000000	0.652312
870.000000	0.651084
869.000000	0.650455
868.000000	0.649652
867.000000	0.649408
866.000000	0.649085
865.000000	0.648703
864.000000	0.648729
863.000000	0.649279
862.000000	0.649954
861.000000	0.650024
860.000000	0.650512
859.000000	0.659763
858.000000	0.660980
857.000000	0.662558
856.000000	0.663704
855.000000	0.664412
854.000000	0.665904
853.000000	0.667145
852.000000	0.667807
851.000000	0.668819
850.000000	0.669310
849.000000	0.670329
848.000000	0.670588
847.000000	0.670924
846.000000	0.671138
845.000000	0.671057
844.000000	0.671634
843.000000	0.671275
842.000000	0.671380
841.000000	0.671370
840.000000	0.671061
839.000000	0.670754
838.000000	0.670730
837.000000	0.669638
836.000000	0.669012
835.000000	0.668257
834.000000	0.667448
833.000000	0.666172
832.000000	0.665354
831.000000	0.664143
830.000000	0.663153
829.000000	0.661794
828.000000	0.660567
827.000000	0.659343
826.000000	0.658168
825.000000	0.656639
824.000000	0.655192
823.000000	0.654180
822.000000	0.652863
821.000000	0.651732
820.000000	0.650653
819.000000	0.649283
818.000000	0.648045
817.000000	0.647054
816.000000	0.646200
815.000000	0.644811
814.000000	0.644294
813.000000	0.643435
812.000000	0.642225
811.000000	0.641400
810.000000	0.640650
809.000000	0.639770
808.000000	0.638891
807.000000	0.637762
806.000000	0.637123
805.000000	0.636372
804.000000	0.635449
803.000000	0.634351
802.000000	0.633599
801.000000	0.632637
800.000000	0.632115
799.000000	0.630887
798.000000	0.629887
797.000000	0.629081
796.000000	0.628344
795.000000	0.627372
794.000000	0.626621
793.000000	0.625750
792.000000	0.625050
791.000000	0.624588
790.000000	0.623940
789.000000	0.623299
788.000000	0.622915
787.000000	0.622408
786.000000	0.622244
785.000000	0.622077
784.000000	0.621969
783.000000	0.621870
782.000000	0.622071
781.000000	0.622121
780.000000	0.622248
779.000000	0.622544
778.000000	0.622888
777.000000	0.622954
776.000000	0.623412
775.000000	0.623693
774.000000	0.623931
773.000000	0.624276
772.000000	0.624581
771.000000	0.625077
770.000000	0.625603
769.000000	0.625893
768.000000	0.626442
767.000000	0.627046
766.000000	0.627545
765.000000	0.627924
764.000000	0.628658
763.000000	0.629273
762.000000	0.629922
761.000000	0.630676
760.000000	0.631477
759.000000	0.632306
758.000000	0.633243
757.000000	0.634067
756.000000	0.635043
755.000000	0.635982
754.000000	0.636949
753.000000	0.638004
752.000000	0.639220
751.000000	0.640270
750.000000	0.641510
749.000000	0.642870
748.000000	0.644073
747.000000	0.645392
746.000000	0.646800
745.000000	0.647913
744.000000	0.649238
743.000000	0.650439
742.000000	0.651688
741.000000	0.653112
740.000000	0.654354
739.000000	0.655368
738.000000	0.656444
737.000000	0.657566
736.000000	0.658446
735.000000	0.659474
734.000000	0.660515
733.000000	0.661130
732.000000	0.661891
731.000000	0.662769
730.000000	0.663441
729.000000	0.664052
728.000000	0.664484
727.000000	0.664838
726.000000	0.665311
725.000000	0.665695
724.000000	0.665805
723.000000	0.665994
722.000000	0.666252
721.000000	0.666402
720.000000	0.666702
719.000000	0.667068
718.000000	0.667330
717.000000	0.667952
716.000000	0.668542
715.000000	0.669148
714.000000	0.669886
713.000000	0.670879
712.000000	0.671712
711.000000	0.672855
710.000000	0.674275
709.000000	0.675596
708.000000	0.677061
707.000000	0.678875
706.000000	0.680633
705.000000	0.682621
704.000000	0.684491
703.000000	0.686416
702.000000	0.688470
701.000000	0.690713
700.000000	0.692890
699.000000	0.695200
698.000000	0.697276
697.000000	0.699327
696.000000	0.701536
695.000000	0.703869
694.000000	0.705807
693.000000	0.708084
692.000000	0.710126
691.000000	0.712257
690.000000	0.714594
689.000000	0.717268
688.000000	0.720263
687.000000	0.723163
686.000000	0.726662
685.000000	0.730063
684.000000	0.733947
683.000000	0.738034
682.000000	0.742492
681.000000	0.747024
680.000000	0.751927
679.000000	0.756782
678.000000	0.761817
677.000000	0.767102
676.000000	0.772359
675.000000	0.777262
674.000000	0.782552
673.000000	0.787254
672.000000	0.791570
671.000000	0.795534
670.000000	0.799308
669.000000	0.802361
668.000000	0.805207
667.000000	0.807313
666.000000	0.809035
665.000000	0.810518
664.000000	0.812063
663.000000	0.813343
662.000000	0.814792
661.000000	0.815976
660.000000	0.817548
659.000000	0.819473
658.000000	0.821804
657.000000	0.823912
656.000000	0.826404
655.000000	0.828176
654.000000	0.830083
653.000000	0.831727
652.000000	0.832819
651.000000	0.832878
650.000000	0.832422
649.000000	0.830954
648.000000	0.828935
647.000000	0.826060
646.000000	0.822821
645.000000	0.818809
644.000000	0.814811
643.000000	0.810166
642.000000	0.805940
641.000000	0.801419
640.000000	0.796922
639.000000	0.792432
638.000000	0.788606
637.000000	0.784468
636.000000	0.780787
635.000000	0.777562
634.000000	0.774643
633.000000	0.772033
632.000000	0.770397
631.000000	0.768583
630.000000	0.767257
629.000000	0.766422
628.000000	0.766161
627.000000	0.765881
626.000000	0.766265
625.000000	0.766647
624.000000	0.767526
623.000000	0.768663
622.000000	0.770130
621.000000	0.771564
620.000000	0.773502
619.000000	0.775588
618.000000	0.778002
617.000000	0.780919
616.000000	0.783830
615.000000	0.786762
614.000000	0.790272
613.000000	0.793483
612.000000	0.797297
611.000000	0.801135
610.000000	0.805522
609.000000	0.809823
608.000000	0.815020
607.000000	0.819693
606.000000	0.825119
605.000000	0.830861
604.000000	0.836928
603.000000	0.843128
602.000000	0.850219
601.000000	0.856856
600.000000	0.863974
599.000000	0.871519
598.000000	0.879492
597.000000	0.887330
596.000000	0.895352
595.000000	0.902625
594.000000	0.909989
593.000000	0.917245
592.000000	0.924363
591.000000	0.930908
590.000000	0.937733
589.000000	0.944055
588.000000	0.950638
587.000000	0.957345
586.000000	0.963867
585.000000	0.970552
584.000000	0.977993
583.000000	0.985369
582.000000	0.993338
581.000000	1.001606
580.000000	1.010685
579.000000	1.019859
578.000000	1.030163
577.000000	1.040211
576.000000	1.050254
575.000000	1.059892
574.000000	1.069030
573.000000	1.076430
572.000000	1.082085
571.000000	1.084571
570.000000	1.084377
569.000000	1.080918
568.000000	1.074670
567.000000	1.065078
566.000000	1.053794
565.000000	1.040479
564.000000	1.026804
563.000000	1.012690
562.000000	0.999339
561.000000	0.986305
560.000000	0.974704
559.000000	0.963987
558.000000	0.954735
557.000000	0.945406
556.000000	0.937213
555.000000	0.929521
554.000000	0.922480
553.000000	0.915598
552.000000	0.909313
551.000000	0.903307
550.000000	0.897972
549.000000	0.893343
548.000000	0.889276
547.000000	0.885603
546.000000	0.882756
545.000000	0.879920
544.000000	0.877955
543.000000	0.876234
542.000000	0.874973
541.000000	0.873911
540.000000	0.873154
539.000000	0.872254
538.000000	0.871873
537.000000	0.871862
536.000000	0.872107
535.000000	0.872494
534.000000	0.873411
533.000000	0.874171
532.000000	0.875583
531.000000	0.877538
530.000000	0.879563
529.000000	0.881869
528.000000	0.884484
527.000000	0.887080
526.000000	0.890072
525.000000	0.893260
524.000000	0.896410
523.000000	0.899350
522.000000	0.902267
521.000000	0.904710
520.000000	0.907395
519.000000	0.909903
518.000000	0.912117
517.000000	0.914212
516.000000	0.916137
515.000000	0.917835
514.000000	0.919505
513.000000	0.920974
512.000000	0.922434
511.000000	0.923437
510.000000	0.924215
509.000000	0.924486
508.000000	0.924551
507.000000	0.924244
506.000000	0.923747
505.000000	0.922984
504.000000	0.921764
503.000000	0.920259
502.000000	0.918961
501.000000	0.917683
500.000000	0.916475
499.000000	0.915257
498.000000	0.914123
497.000000	0.913053
496.000000	0.912364
495.000000	0.912049
494.000000	0.911886
493.000000	0.911840
492.000000	0.911945
491.000000	0.912111
490.000000	0.912802
489.000000	0.913796
488.000000	0.914939
487.000000	0.916364
486.000000	0.918005
485.000000	0.919790
484.000000	0.922134
483.000000	0.924856
482.000000	0.927770
481.000000	0.931275
480.000000	0.935179
479.000000	0.939387
478.000000	0.944354
477.000000	0.949832
476.000000	0.955606
475.000000	0.962044
474.000000	0.968965
473.000000	0.976112
472.000000	0.983624
471.000000	0.991330
470.000000	0.998908
469.000000	1.006283
468.000000	1.012909
467.000000	1.018842
466.000000	1.024258
465.000000	1.029090
464.000000	1.033284
463.000000	1.037003
462.000000	1.039982
461.000000	1.042553
460.000000	1.045007
459.000000	1.047246
458.000000	1.048760
457.000000	1.049615
456.000000	1.049755
455.000000	1.049134
454.000000	1.048096
453.000000	1.046594
452.000000	1.044630
451.000000	1.042742
450.000000	1.040522
449.000000	1.038579
448.000000	1.036604
447.000000	1.035284
446.000000	1.034038
445.000000	1.033310
444.000000	1.032711
443.000000	1.032245
442.000000	1.032352
441.000000	1.032800
440.000000	1.033431
439.000000	1.034773
438.000000	1.035731
437.000000	1.037168
436.000000	1.038971
435.000000	1.041237
434.000000	1.043408
433.000000	1.045902
432.000000	1.048482
431.000000	1.051081
430.000000	1.054158
429.000000	1.057655
428.000000	1.061009
427.000000	1.064962
426.000000	1.068647
425.000000	1.072848
424.000000	1.077363
423.000000	1.082126
422.000000	1.087032
421.000000	1.092375
420.000000	1.097568
419.000000	1.103340
418.000000	1.109084
417.000000	1.115234
416.000000	1.121088
415.000000	1.127573
414.000000	1.133361
413.000000	1.138900
412.000000	1.144527
411.000000	1.150110
410.000000	1.155396
409.000000	1.161016
408.000000	1.165739
407.000000	1.170573
406.000000	1.175040
405.000000	1.179809
404.000000	1.183794
403.000000	1.187685
402.000000	1.190812
401.000000	1.193363
400.000000	1.196049
399.000000	1.198911
398.000000	1.201381
397.000000	1.204285
396.000000	1.206628
395.000000	1.209970
394.000000	1.213792
393.000000	1.218537
392.000000	1.222952
391.000000	1.228442
390.000000	1.233405
389.000000	1.239183
388.000000	1.245037
387.000000	1.251216
386.000000	1.257055
385.000000	1.263662
384.000000	1.269314
383.000000	1.275650
382.000000	1.282159
381.000000	1.289102
380.000000	1.295696
379.000000	1.303018
378.000000	1.310345
377.000000	1.316025
376.000000	1.321933
375.000000	1.327622
374.000000	1.331509
373.000000	1.336424
372.000000	1.340951
371.000000	1.346213
370.000000	1.351583
369.000000	1.358250
368.000000	1.364198
367.000000	1.371814
366.000000	1.380578
365.000000	1.390420
364.000000	1.400670
363.000000	1.412886
362.000000	1.425252
361.000000	1.439427
360.000000	1.454569
